voltage		Abs J		  J    		Voltage		Current
0.0000E+0	6.6629E-7	-6.6629E-7	9.3936E-6	-3.2706E-12
2.0000E-2	1.3359E-7	1.3359E-7	2.0017E-2	6.5577E-13
4.0000E-2	2.6862E-7	2.6862E-7	4.0016E-2	1.3186E-12
6.0000E-2	3.3041E-7	3.3041E-7	5.9985E-2	1.6219E-12
8.0000E-2	3.9599E-7	3.9599E-7	7.9976E-2	1.9438E-12
1.0000E-1	4.8196E-7	4.8196E-7	9.9947E-2	2.3658E-12
1.2000E-1	5.6486E-7	5.6486E-7	1.1995E-1	2.7727E-12
1.4000E-1	6.5029E-7	6.5029E-7	1.3997E-1	3.1921E-12
1.6000E-1	7.7308E-7	7.7308E-7	1.5997E-1	3.7948E-12
1.8000E-1	9.5919E-7	9.5919E-7	1.7999E-1	4.7084E-12
2.0000E-1	1.0694E-6	1.0694E-6	1.9998E-1	5.2494E-12
2.2000E-1	1.1764E-6	1.1764E-6	2.2001E-1	5.7745E-12
2.4000E-1	1.3521E-6	1.3521E-6	2.4001E-1	6.6371E-12
2.6000E-1	1.6062E-6	1.6062E-6	2.6004E-1	7.8842E-12
2.8000E-1	1.8290E-6	1.8290E-6	2.8004E-1	8.9779E-12
3.0000E-1	1.9714E-6	1.9714E-6	3.0001E-1	9.6770E-12
3.2000E-1	2.2967E-6	2.2967E-6	3.2001E-1	1.1274E-11
3.4000E-1	2.5618E-6	2.5618E-6	3.3998E-1	1.2575E-11
3.6000E-1	2.5930E-6	2.5930E-6	3.5998E-1	1.2728E-11
3.8000E-1	2.8769E-6	2.8769E-6	3.7998E-1	1.4122E-11
4.0000E-1	3.2602E-6	3.2602E-6	3.9995E-1	1.6004E-11
4.2000E-1	3.6011E-6	3.6011E-6	4.1999E-1	1.7677E-11
4.4000E-1	3.9625E-6	3.9625E-6	4.3999E-1	1.9451E-11
4.6000E-1	4.3544E-6	4.3544E-6	4.6002E-1	2.1375E-11
4.8000E-1	4.8096E-6	4.8096E-6	4.8004E-1	2.3609E-11
5.0000E-1	4.8880E-6	4.8880E-6	5.0004E-1	2.3994E-11
5.2000E-1	5.4431E-6	5.4431E-6	5.2007E-1	2.6719E-11
5.4000E-1	5.9915E-6	5.9915E-6	5.4006E-1	2.9411E-11
5.6000E-1	6.4573E-6	6.4573E-6	5.6006E-1	3.1697E-11
5.8000E-1	7.3161E-6	7.3161E-6	5.8004E-1	3.5913E-11
6.0000E-1	8.1702E-6	8.1702E-6	6.0002E-1	4.0105E-11
6.2000E-1	9.2633E-6	9.2633E-6	6.2003E-1	4.5471E-11
6.4000E-1	9.9508E-6	9.9508E-6	6.4001E-1	4.8846E-11
6.6000E-1	1.1178E-5	1.1178E-5	6.6001E-1	5.4872E-11
6.8000E-1	1.2447E-5	1.2447E-5	6.8000E-1	6.1100E-11
7.0000E-1	1.4842E-5	1.4842E-5	7.0003E-1	7.2854E-11
7.2000E-1	1.5731E-5	1.5731E-5	7.2006E-1	7.7217E-11
7.4000E-1	1.6914E-5	1.6914E-5	7.3487E-1	8.3026E-11
7.6000E-1	1.7461E-5	1.7461E-5	7.4666E-1	8.5710E-11
7.8000E-1	1.8177E-5	1.8177E-5	7.4662E-1	8.9225E-11
8.0000E-1	1.6759E-5	1.6759E-5	8.0007E-1	8.2263E-11
8.2000E-1	2.2643E-5	2.2643E-5	8.2009E-1	1.1115E-10
8.4000E-1	2.4177E-5	2.4177E-5	8.4006E-1	1.1868E-10
8.6000E-1	2.7653E-5	2.7653E-5	8.6006E-1	1.3574E-10
8.8000E-1	3.6301E-5	3.6301E-5	8.8002E-1	1.7819E-10
9.0000E-1	3.7759E-5	3.7759E-5	9.0001E-1	1.8535E-10
9.2000E-1	4.3600E-5	4.3600E-5	9.1999E-1	2.1402E-10
9.4000E-1	4.8437E-5	4.8437E-5	9.4001E-1	2.3776E-10
9.6000E-1	5.4644E-5	5.4644E-5	9.6003E-1	2.6823E-10
9.8000E-1	6.2509E-5	6.2509E-5	9.8003E-1	3.0684E-10
1.0000E+0	8.1915E-5	8.1915E-5	1.0001E+0	4.0210E-10
9.8000E-1	6.6987E-5	6.6987E-5	9.8005E-1	3.2882E-10
9.6000E-1	5.7035E-5	5.7035E-5	9.6006E-1	2.7997E-10
9.4000E-1	4.2923E-5	4.2923E-5	9.4001E-1	2.1070E-10
9.2000E-1	4.3238E-5	4.3238E-5	9.2000E-1	2.1224E-10
9.0000E-1	3.0780E-5	3.0780E-5	9.0002E-1	1.5109E-10
8.8000E-1	2.9594E-5	2.9594E-5	8.8003E-1	1.4527E-10
8.6000E-1	2.4044E-5	2.4044E-5	8.6006E-1	1.1802E-10
8.4000E-1	2.3056E-5	2.3056E-5	8.4006E-1	1.1318E-10
8.2000E-1	1.6523E-5	1.6523E-5	8.1448E-1	8.1109E-11
8.0000E-1	1.3563E-5	1.3563E-5	8.0006E-1	6.6576E-11
7.8000E-1	1.4991E-5	1.4991E-5	7.8006E-1	7.3588E-11
7.6000E-1	1.4900E-5	1.4900E-5	7.6007E-1	7.3140E-11
7.4000E-1	1.2795E-5	1.2795E-5	7.4004E-1	6.2809E-11
7.2000E-1	1.1726E-5	1.1726E-5	7.2006E-1	5.7558E-11
7.0000E-1	9.1528E-6	9.1528E-6	7.0002E-1	4.4929E-11
6.8000E-1	7.6651E-6	7.6651E-6	6.8000E-1	3.7626E-11
6.6000E-1	6.8759E-6	6.8759E-6	6.6001E-1	3.3752E-11
6.4000E-1	6.9137E-6	6.9137E-6	6.4000E-1	3.3938E-11
6.2000E-1	6.1832E-6	6.1832E-6	6.2004E-1	3.0352E-11
6.0000E-1	5.6596E-6	5.6596E-6	6.0003E-1	2.7782E-11
5.8000E-1	4.6537E-6	4.6537E-6	5.8003E-1	2.2844E-11
5.6000E-1	4.1122E-6	4.1122E-6	5.6006E-1	2.0186E-11
5.4000E-1	3.7759E-6	3.7759E-6	5.4006E-1	1.8535E-11
5.2000E-1	3.4499E-6	3.4499E-6	5.2007E-1	1.6935E-11
5.0000E-1	3.0433E-6	3.0433E-6	5.0004E-1	1.4939E-11
4.8000E-1	3.0433E-6	3.0433E-6	4.8004E-1	1.4939E-11
4.6000E-1	2.6711E-6	2.6711E-6	4.6002E-1	1.3112E-11
4.4000E-1	2.3547E-6	2.3547E-6	4.3999E-1	1.1558E-11
4.2000E-1	2.1574E-6	2.1574E-6	4.1998E-1	1.0590E-11
4.0000E-1	2.0321E-6	2.0321E-6	3.9995E-1	9.9749E-12
3.8000E-1	1.7801E-6	1.7801E-6	3.7998E-1	8.7383E-12
3.6000E-1	1.5172E-6	1.5172E-6	3.5997E-1	7.4473E-12
3.4000E-1	1.3614E-6	1.3614E-6	3.3997E-1	6.6827E-12
3.2000E-1	1.1385E-6	1.1385E-6	3.2002E-1	5.5884E-12
3.0000E-1	1.0390E-6	1.0390E-6	3.0001E-1	5.1004E-12
2.8000E-1	8.9007E-7	8.9007E-7	2.8004E-1	4.3691E-12
2.6000E-1	7.5606E-7	7.5606E-7	2.6003E-1	3.7113E-12
2.4000E-1	6.3385E-7	6.3385E-7	2.4001E-1	3.1114E-12
2.2000E-1	5.5398E-7	5.5398E-7	2.2001E-1	2.7193E-12
2.0000E-1	4.7576E-7	4.7576E-7	1.9998E-1	2.3354E-12
1.8000E-1	3.8081E-7	3.8081E-7	1.7999E-1	1.8693E-12
1.6000E-1	3.0788E-7	3.0788E-7	1.5996E-1	1.5113E-12
1.4000E-1	2.4358E-7	2.4358E-7	1.3997E-1	1.1957E-12
1.2000E-1	1.9189E-7	1.9189E-7	1.1995E-1	9.4192E-13
1.0000E-1	1.3691E-7	1.3691E-7	9.9950E-2	6.7204E-13
8.0000E-2	9.0165E-8	9.0165E-8	7.9979E-2	4.4260E-13
6.0000E-2	4.2924E-8	4.2924E-8	5.9985E-2	2.1071E-13
4.0000E-2	9.6261E-9	-9.6261E-9	4.0016E-2	-4.7252E-14
2.0000E-2	4.5536E-8	-4.5536E-8	2.0018E-2	-2.2353E-13
0.0000E+0	9.2051E-8	-9.2051E-8	1.3088E-5	-4.5185E-13
-2.0000E-2	1.3498E-7	-1.3498E-7	-1.9933E-2	-6.6259E-13
-4.0000E-2	1.9125E-7	-1.9125E-7	-3.9943E-2	-9.3880E-13
-6.0000E-2	2.4836E-7	-2.4836E-7	-5.9913E-2	-1.2191E-12
-8.0000E-2	3.1742E-7	-3.1742E-7	-7.9903E-2	-1.5581E-12
-1.0000E-1	3.6869E-7	-3.6869E-7	-9.9881E-2	-1.8098E-12
-1.2000E-1	4.3515E-7	-4.3515E-7	-1.1988E-1	-2.1361E-12
-1.4000E-1	5.2539E-7	-5.2539E-7	-1.3987E-1	-2.5790E-12
-1.6000E-1	6.3004E-7	-6.3004E-7	-1.5991E-1	-3.0927E-12
-1.8000E-1	7.6501E-7	-7.6501E-7	-1.7991E-1	-3.7552E-12
-2.0000E-1	9.3283E-7	-9.3283E-7	-1.9993E-1	-4.5790E-12
-2.2000E-1	1.0599E-6	-1.0599E-6	-2.1993E-1	-5.2027E-12
-2.4000E-1	1.2803E-6	-1.2803E-6	-2.3996E-1	-6.2848E-12
-2.6000E-1	1.5442E-6	-1.5442E-6	-2.5996E-1	-7.5803E-12
-2.8000E-1	1.8406E-6	-1.8406E-6	-2.7997E-1	-9.0352E-12
-3.0000E-1	2.2992E-6	-2.2992E-6	-2.9998E-1	-1.1286E-11
-3.2000E-1	2.5988E-6	-2.5988E-6	-3.1995E-1	-1.2757E-11
-3.4000E-1	3.1175E-6	-3.1175E-6	-3.3994E-1	-1.5303E-11
-3.6000E-1	4.0961E-6	-4.0961E-6	-3.5991E-1	-2.0107E-11
-3.8000E-1	4.9883E-6	-4.9883E-6	-3.7991E-1	-2.4486E-11
-4.0000E-1	5.7784E-6	-5.7784E-6	-3.9990E-1	-2.8365E-11
-4.2000E-1	7.3159E-6	-7.3159E-6	-4.1993E-1	-3.5912E-11
-4.4000E-1	9.1277E-6	-9.1277E-6	-4.3994E-1	-4.4805E-11
-4.6000E-1	1.1101E-5	-1.1101E-5	-4.5997E-1	-5.4490E-11
-4.8000E-1	1.3637E-5	-1.3637E-5	-4.7997E-1	-6.6942E-11
-5.0000E-1	4.6215E-7	4.6215E-7	-4.9999E-1	2.2686E-12
-5.2000E-1	1.7416E-5	-1.7416E-5	-4.6667E-1	-8.5488E-11
-5.4000E-1	3.6708E-7	-3.6708E-7	-5.3999E-1	-1.8019E-12
-5.6000E-1	2.0996E-5	-2.0996E-5	-5.5999E-1	-1.0307E-10
-5.8000E-1	4.3593E-5	-4.3593E-5	-5.8000E-1	-2.1399E-10
-6.0000E-1	5.5617E-5	-5.5617E-5	-5.9996E-1	-2.7301E-10
-6.2000E-1	7.1352E-5	-7.1352E-5	-6.1997E-1	-3.5025E-10
-6.4000E-1	8.9604E-5	-8.9604E-5	-6.3994E-1	-4.3984E-10
-6.6000E-1	1.1355E-4	-1.1355E-4	-6.5995E-1	-5.5737E-10
-6.8000E-1	1.4548E-4	-1.4548E-4	-6.7895E-1	-7.1411E-10
-7.0000E-1	1.6175E-4	-1.6175E-4	-6.7557E-1	-7.9399E-10
-7.2000E-1	1.7691E-4	-1.7691E-4	-6.2452E-1	-8.6843E-10
-7.4000E-1	2.9257E-4	-2.9257E-4	-7.3998E-1	-1.4361E-9
-7.6000E-1	3.6514E-4	-3.6514E-4	-7.6002E-1	-1.7924E-9
-7.8000E-1	4.5470E-4	-4.5470E-4	-7.8001E-1	-2.2320E-9
-8.0000E-1	5.7132E-4	-5.7132E-4	-8.0004E-1	-2.8044E-9
-8.2000E-1	7.0846E-4	-7.0846E-4	-8.2002E-1	-3.4776E-9
-8.4000E-1	8.7515E-4	-8.7515E-4	-8.4003E-1	-4.2959E-9
-8.6000E-1	1.0711E-3	-1.0711E-3	-8.6000E-1	-5.2580E-9
-8.8000E-1	1.3150E-3	-1.3150E-3	-8.7999E-1	-6.4551E-9
-9.0000E-1	1.5901E-3	-1.5901E-3	-8.9997E-1	-7.8053E-9
-9.2000E-1	1.9094E-3	-1.9094E-3	-9.1849E-1	-9.3726E-9
-9.4000E-1	1.9883E-3	-1.9883E-3	-9.3994E-1	-9.7599E-9
-9.6000E-1	2.4164E-3	-2.4164E-3	-9.5997E-1	-1.1861E-8
-9.8000E-1	2.9061E-3	-2.9061E-3	-9.7997E-1	-1.4265E-8
-1.0000E+0	3.4703E-3	-3.4703E-3	-1.0000E+0	-1.7035E-8
-9.8000E-1	3.0566E-3	-3.0566E-3	-9.7998E-1	-1.5004E-8
-9.6000E-1	2.6590E-3	-2.6590E-3	-9.5997E-1	-1.3053E-8
-9.4000E-1	2.3217E-3	-2.3217E-3	-9.3994E-1	-1.1397E-8
-9.2000E-1	1.7377E-3	-1.7377E-3	-9.1996E-1	-8.5297E-9
-9.0000E-1	1.5190E-3	-1.5190E-3	-8.9997E-1	-7.4565E-9
-8.8000E-1	1.3134E-3	-1.3134E-3	-8.7999E-1	-6.4473E-9
-8.6000E-1	1.1313E-3	-1.1313E-3	-8.6000E-1	-5.5531E-9
-8.4000E-1	9.6882E-4	-9.6882E-4	-8.4003E-1	-4.7557E-9
-8.2000E-1	8.1796E-4	-8.1796E-4	-8.2002E-1	-4.0151E-9
-8.0000E-1	6.9097E-4	-6.9097E-4	-8.0004E-1	-3.3918E-9
-7.8000E-1	5.8408E-4	-5.8408E-4	-7.8001E-1	-2.8671E-9
-7.6000E-1	4.8987E-4	-4.8987E-4	-7.6002E-1	-2.4046E-9
-7.4000E-1	4.0370E-4	-4.0370E-4	-7.3998E-1	-1.9817E-9
-7.2000E-1	3.3947E-4	-3.3947E-4	-7.2000E-1	-1.6664E-9
-7.0000E-1	2.7469E-4	-2.7469E-4	-6.9996E-1	-1.3484E-9
-6.8000E-1	2.2485E-4	-2.2485E-4	-6.7997E-1	-1.1037E-9
-6.6000E-1	1.5814E-4	-1.5814E-4	-6.2977E-1	-7.7626E-10
-6.4000E-1	1.4431E-4	-1.4431E-4	-6.3992E-1	-7.0840E-10
-6.2000E-1	1.1695E-4	-1.1695E-4	-6.1997E-1	-5.7410E-10
-6.0000E-1	9.2682E-5	-9.2682E-5	-5.9997E-1	-4.5495E-10
-5.8000E-1	7.3226E-5	-7.3226E-5	-5.8000E-1	-3.5945E-10
-5.6000E-1	5.9054E-5	-5.9054E-5	-5.6000E-1	-2.8988E-10
-5.4000E-1	4.5835E-5	-4.5835E-5	-5.4002E-1	-2.2499E-10
-5.2000E-1	3.6677E-5	-3.6677E-5	-5.2000E-1	-1.8004E-10
-5.0000E-1	2.8265E-5	-2.8265E-5	-4.9999E-1	-1.3875E-10
-4.8000E-1	2.2828E-5	-2.2828E-5	-4.7996E-1	-1.1206E-10
-4.6000E-1	1.4041E-7	-1.4041E-7	-4.5997E-1	-6.8926E-13
-4.4000E-1	1.2024E-5	-1.2024E-5	-4.3994E-1	-5.9024E-11
-4.2000E-1	1.0941E-5	-1.0941E-5	-4.1994E-1	-5.3704E-11
-4.0000E-1	8.7847E-6	-8.7847E-6	-3.9990E-1	-4.3122E-11
-3.8000E-1	6.8610E-6	-6.8610E-6	-3.7992E-1	-3.3679E-11
-3.6000E-1	5.3285E-6	-5.3285E-6	-3.5992E-1	-2.6156E-11
-3.4000E-1	4.0428E-6	-4.0428E-6	-3.3994E-1	-1.9845E-11
-3.2000E-1	3.1160E-6	-3.1160E-6	-3.1995E-1	-1.5296E-11
-3.0000E-1	2.4207E-6	-2.4207E-6	-2.9998E-1	-1.1883E-11
-2.8000E-1	1.8779E-6	-1.8779E-6	-2.7997E-1	-9.2180E-12
-2.6000E-1	1.4274E-6	-1.4274E-6	-2.5996E-1	-7.0069E-12
-2.4000E-1	1.0871E-6	-1.0871E-6	-2.3996E-1	-5.3361E-12
-2.2000E-1	8.1709E-7	-8.1709E-7	-2.1993E-1	-4.0109E-12
-2.0000E-1	6.1401E-7	-6.1401E-7	-1.9993E-1	-3.0140E-12
-1.8000E-1	4.4951E-7	-4.4951E-7	-1.7991E-1	-2.2065E-12
-1.6000E-1	3.0686E-7	-3.0686E-7	-1.5991E-1	-1.5063E-12
-1.4000E-1	1.8596E-7	-1.8596E-7	-1.3988E-1	-9.1284E-13
-1.2000E-1	1.0093E-7	-1.0093E-7	-1.1988E-1	-4.9542E-13
-1.0000E-1	2.6481E-8	-2.6481E-8	-9.9879E-2	-1.2999E-13
-8.0000E-2	3.9550E-8	3.9550E-8	-7.9908E-2	1.9414E-13
-6.0000E-2	9.0096E-8	9.0096E-8	-5.9913E-2	4.4226E-13
-4.0000E-2	1.3956E-7	1.3956E-7	-3.9938E-2	6.8506E-13
-2.0000E-2	1.8337E-7	1.8337E-7	-1.9932E-2	9.0013E-13
-0.0000E+0	2.2726E-7	2.2726E-7	3.7013E-5	1.1156E-12
0.0000E+0	1.7149E-7	1.7149E-7	3.5671E-5	8.4181E-13
2.0000E-2	2.3837E-7	2.3837E-7	2.0015E-2	1.1701E-12
4.0000E-2	2.8745E-7	2.8745E-7	4.0017E-2	1.4110E-12
6.0000E-2	3.2675E-7	3.2675E-7	5.9990E-2	1.6039E-12
8.0000E-2	3.7804E-7	3.7804E-7	7.9978E-2	1.8557E-12
1.0000E-1	4.3709E-7	4.3709E-7	9.9947E-2	2.1456E-12
1.2000E-1	4.8606E-7	4.8606E-7	1.1995E-1	2.3859E-12
1.4000E-1	5.4436E-7	5.4436E-7	1.3997E-1	2.6721E-12
1.6000E-1	5.9904E-7	5.9904E-7	1.5997E-1	2.9405E-12
1.8000E-1	6.6720E-7	6.6720E-7	1.7999E-1	3.2751E-12
2.0000E-1	7.4287E-7	7.4287E-7	1.9998E-1	3.6465E-12
2.2000E-1	8.1869E-7	8.1869E-7	2.2001E-1	4.0187E-12
2.4000E-1	9.0776E-7	9.0776E-7	2.4001E-1	4.4560E-12
2.6000E-1	1.0348E-6	1.0348E-6	2.6003E-1	5.0797E-12
2.8000E-1	1.1255E-6	1.1255E-6	2.8004E-1	5.5249E-12
3.0000E-1	1.2371E-6	1.2371E-6	3.0001E-1	6.0727E-12
3.2000E-1	1.3712E-6	1.3712E-6	3.2001E-1	6.7307E-12
3.4000E-1	1.5200E-6	1.5200E-6	3.3998E-1	7.4612E-12
3.6000E-1	1.6160E-6	1.6160E-6	3.5998E-1	7.9323E-12
3.8000E-1	1.7744E-6	1.7744E-6	3.7998E-1	8.7102E-12
4.0000E-1	1.9290E-6	1.9290E-6	3.9995E-1	9.4688E-12
4.2000E-1	2.0874E-6	2.0874E-6	4.1999E-1	1.0247E-11
4.4000E-1	2.3285E-6	2.3285E-6	4.3999E-1	1.1430E-11
4.6000E-1	2.6007E-6	2.6007E-6	4.6002E-1	1.2766E-11
4.8000E-1	2.8005E-6	2.8005E-6	4.8003E-1	1.3747E-11
5.0000E-1	3.1446E-6	3.1446E-6	5.0004E-1	1.5436E-11
5.2000E-1	3.4764E-6	3.4764E-6	5.2007E-1	1.7065E-11
5.4000E-1	3.9061E-6	3.9061E-6	5.4006E-1	1.9174E-11
5.6000E-1	4.4526E-6	4.4526E-6	5.6006E-1	2.1856E-11
5.8000E-1	5.1512E-6	5.1512E-6	5.8003E-1	2.5286E-11
6.0000E-1	5.5176E-6	5.5176E-6	6.0002E-1	2.7084E-11
6.2000E-1	6.2745E-6	6.2745E-6	6.2003E-1	3.0800E-11
6.4000E-1	6.9387E-6	6.9387E-6	6.4000E-1	3.4060E-11
6.6000E-1	7.8921E-6	7.8921E-6	6.6001E-1	3.8740E-11
6.8000E-1	8.7566E-6	8.7566E-6	6.7999E-1	4.2984E-11
7.0000E-1	1.0263E-5	1.0263E-5	7.0002E-1	5.0378E-11
7.2000E-1	1.2257E-5	1.2257E-5	7.2006E-1	6.0164E-11
7.4000E-1	1.3804E-5	1.3804E-5	7.4004E-1	6.7758E-11
7.6000E-1	1.5450E-5	1.5450E-5	7.6007E-1	7.5840E-11
7.8000E-1	1.6876E-5	1.6876E-5	7.7616E-1	8.2838E-11
8.0000E-1	1.7594E-5	1.7594E-5	7.8017E-1	8.6366E-11
8.2000E-1	1.8163E-5	1.8163E-5	7.7458E-1	8.9157E-11
8.4000E-1	1.5166E-5	1.5166E-5	8.4004E-1	7.4444E-11
8.6000E-1	2.3731E-5	2.3731E-5	8.6006E-1	1.1649E-10
8.8000E-1	2.9939E-5	2.9939E-5	8.8002E-1	1.4696E-10
9.0000E-1	3.3049E-5	3.3049E-5	9.0003E-1	1.6223E-10
9.2000E-1	3.5935E-5	3.5935E-5	9.2000E-1	1.7640E-10
9.4000E-1	3.9200E-5	3.9200E-5	9.4001E-1	1.9242E-10
9.6000E-1	4.3157E-5	4.3157E-5	9.6004E-1	2.1184E-10
9.8000E-1	5.0171E-5	5.0171E-5	9.8003E-1	2.4628E-10
1.0000E+0	5.2185E-5	5.2185E-5	1.0001E+0	2.5616E-10
9.8000E-1	4.2631E-5	4.2631E-5	9.8003E-1	2.0926E-10
9.6000E-1	4.0114E-5	4.0114E-5	9.6004E-1	1.9691E-10
9.4000E-1	3.2504E-5	3.2504E-5	9.4001E-1	1.5955E-10
9.2000E-1	3.1173E-5	3.1173E-5	9.1999E-1	1.5302E-10
9.0000E-1	2.9216E-5	2.9216E-5	9.0002E-1	1.4341E-10
8.8000E-1	2.5904E-5	2.5904E-5	8.8002E-1	1.2716E-10
8.6000E-1	2.0807E-5	2.0807E-5	8.6006E-1	1.0214E-10
8.4000E-1	1.1323E-5	1.1323E-5	8.4005E-1	5.5581E-11
8.2000E-1	1.4261E-5	1.4261E-5	8.2010E-1	7.0005E-11
8.0000E-1	1.4284E-5	1.4284E-5	8.0009E-1	7.0114E-11
7.8000E-1	1.3451E-5	1.3451E-5	7.8006E-1	6.6027E-11
7.6000E-1	1.1155E-5	1.1155E-5	7.6007E-1	5.4758E-11
7.4000E-1	9.4661E-6	9.4661E-6	7.4004E-1	4.6467E-11
7.2000E-1	8.5369E-6	8.5369E-6	7.2005E-1	4.1905E-11
7.0000E-1	7.9582E-6	7.9582E-6	7.0003E-1	3.9065E-11
6.8000E-1	7.1533E-6	7.1533E-6	6.7999E-1	3.5114E-11
6.6000E-1	6.1123E-6	6.1123E-6	6.6000E-1	3.0004E-11
6.4000E-1	5.3438E-6	5.3438E-6	6.4000E-1	2.6231E-11
6.2000E-1	4.5216E-6	4.5216E-6	6.2003E-1	2.2196E-11
6.0000E-1	3.9161E-6	3.9161E-6	6.0002E-1	1.9223E-11
5.8000E-1	3.4813E-6	3.4813E-6	5.8003E-1	1.7089E-11
5.6000E-1	3.0581E-6	3.0581E-6	5.6006E-1	1.5011E-11
5.4000E-1	2.6401E-6	2.6401E-6	5.4006E-1	1.2959E-11
5.2000E-1	2.3365E-6	2.3365E-6	5.2007E-1	1.1470E-11
5.0000E-1	2.1336E-6	2.1336E-6	5.0004E-1	1.0473E-11
4.8000E-1	1.8615E-6	1.8615E-6	4.8003E-1	9.1378E-12
4.6000E-1	1.6420E-6	1.6420E-6	4.6001E-1	8.0599E-12
4.4000E-1	1.4794E-6	1.4794E-6	4.3998E-1	7.2619E-12
4.2000E-1	1.2927E-6	1.2927E-6	4.1999E-1	6.3457E-12
4.0000E-1	1.1058E-6	1.1058E-6	3.9995E-1	5.4282E-12
3.8000E-1	9.7530E-7	9.7530E-7	3.7997E-1	4.7875E-12
3.6000E-1	8.5258E-7	8.5258E-7	3.5998E-1	4.1851E-12
3.4000E-1	7.9166E-7	7.9166E-7	3.3997E-1	3.8861E-12
3.2000E-1	6.9554E-7	6.9554E-7	3.2001E-1	3.4142E-12
3.0000E-1	6.0484E-7	6.0484E-7	3.0001E-1	2.9690E-12
2.8000E-1	5.2100E-7	5.2100E-7	2.8004E-1	2.5574E-12
2.6000E-1	4.5251E-7	4.5251E-7	2.6003E-1	2.2213E-12
2.4000E-1	3.6575E-7	3.6575E-7	2.4001E-1	1.7954E-12
2.2000E-1	2.9952E-7	2.9952E-7	2.2001E-1	1.4703E-12
2.0000E-1	2.5733E-7	2.5733E-7	1.9998E-1	1.2632E-12
1.8000E-1	2.0456E-7	2.0456E-7	1.8000E-1	1.0041E-12
1.6000E-1	1.5043E-7	1.5043E-7	1.5997E-1	7.3843E-13
1.4000E-1	1.1249E-7	1.1249E-7	1.3997E-1	5.5218E-13
1.2000E-1	7.6095E-8	7.6095E-8	1.1995E-1	3.7353E-13
1.0000E-1	4.1954E-8	4.1954E-8	9.9946E-2	2.0594E-13
8.0000E-2	1.1176E-8	1.1176E-8	7.9975E-2	5.4861E-14
6.0000E-2	1.0310E-8	-1.0310E-8	5.9988E-2	-5.0607E-14
4.0000E-2	4.7902E-8	-4.7902E-8	4.0019E-2	-2.3514E-13
2.0000E-2	7.2338E-8	-7.2338E-8	2.0017E-2	-3.5509E-13
0.0000E+0	9.8962E-8	-9.8962E-8	1.5690E-5	-4.8578E-13
-2.0000E-2	1.2308E-7	-1.2308E-7	-1.9933E-2	-6.0417E-13
-4.0000E-2	1.5400E-7	-1.5400E-7	-3.9943E-2	-7.5596E-13
-6.0000E-2	1.8154E-7	-1.8154E-7	-5.9912E-2	-8.9111E-13
-8.0000E-2	2.2136E-7	-2.2136E-7	-7.9908E-2	-1.0866E-12
-1.0000E-1	2.5359E-7	-2.5359E-7	-9.9878E-2	-1.2448E-12
-1.2000E-1	3.0603E-7	-3.0603E-7	-1.1988E-1	-1.5022E-12
-1.4000E-1	3.6449E-7	-3.6449E-7	-1.3988E-1	-1.7892E-12
-1.6000E-1	4.3242E-7	-4.3242E-7	-1.5991E-1	-2.1226E-12
-1.8000E-1	5.2553E-7	-5.2553E-7	-1.7991E-1	-2.5797E-12
-2.0000E-1	6.1664E-7	-6.1664E-7	-1.9993E-1	-3.0269E-12
-2.2000E-1	7.5544E-7	-7.5544E-7	-2.1993E-1	-3.7083E-12
-2.4000E-1	8.8955E-7	-8.8955E-7	-2.3996E-1	-4.3666E-12
-2.6000E-1	1.0914E-6	-1.0914E-6	-2.5996E-1	-5.3573E-12
-2.8000E-1	1.3225E-6	-1.3225E-6	-2.7997E-1	-6.4916E-12
-3.0000E-1	1.7022E-6	-1.7022E-6	-2.9998E-1	-8.3558E-12
-3.2000E-1	2.0002E-6	-2.0002E-6	-3.1995E-1	-9.8184E-12
-3.4000E-1	2.3926E-6	-2.3926E-6	-3.3994E-1	-1.1745E-11
-3.6000E-1	2.9538E-6	-2.9538E-6	-3.5991E-1	-1.4499E-11
-3.8000E-1	3.6875E-6	-3.6875E-6	-3.7992E-1	-1.8101E-11
-4.0000E-1	4.6065E-6	-4.6065E-6	-3.9990E-1	-2.2612E-11
-4.2000E-1	5.7654E-6	-5.7654E-6	-4.1994E-1	-2.8301E-11
-4.4000E-1	7.2437E-6	-7.2437E-6	-4.3994E-1	-3.5558E-11
-4.6000E-1	9.3769E-6	-9.3769E-6	-4.5997E-1	-4.6029E-11
-4.8000E-1	1.2033E-5	-1.2033E-5	-4.7997E-1	-5.9068E-11
-5.0000E-1	1.4870E-5	-1.4870E-5	-4.9768E-1	-7.2995E-11
-5.2000E-1	1.6726E-5	-1.6726E-5	-4.9199E-1	-8.2102E-11
-5.4000E-1	1.8253E-5	-1.8253E-5	-4.4990E-1	-8.9597E-11
-5.6000E-1	4.8511E-6	-4.8511E-6	-5.5997E-1	-2.3813E-11
-5.8000E-1	2.0468E-5	-2.0468E-5	-5.8000E-1	-1.0047E-10
-6.0000E-1	4.3437E-5	-4.3437E-5	-5.9996E-1	-2.1322E-10
-6.2000E-1	5.6452E-5	-5.6452E-5	-6.1997E-1	-2.7711E-10
-6.4000E-1	7.1069E-5	-7.1069E-5	-6.3994E-1	-3.4886E-10
-6.6000E-1	9.0672E-5	-9.0672E-5	-6.5995E-1	-4.4509E-10
-6.8000E-1	1.1258E-4	-1.1258E-4	-6.7997E-1	-5.5263E-10
-7.0000E-1	1.4071E-4	-1.4071E-4	-6.9997E-1	-6.9072E-10
-7.2000E-1	1.6015E-4	-1.6015E-4	-7.0198E-1	-7.8612E-10
-7.4000E-1	1.7305E-4	-1.7305E-4	-6.6994E-1	-8.4948E-10
-7.6000E-1	1.9064E-4	-1.9064E-4	-5.6723E-1	-9.3580E-10
-7.8000E-1	3.3879E-4	-3.3879E-4	-7.8002E-1	-1.6631E-9
-8.0000E-1	4.1778E-4	-4.1778E-4	-8.0004E-1	-2.0508E-9
-8.2000E-1	5.1551E-4	-5.1551E-4	-8.2002E-1	-2.5305E-9
-8.4000E-1	6.3202E-4	-6.3202E-4	-8.4002E-1	-3.1024E-9
-8.6000E-1	7.7574E-4	-7.7574E-4	-8.6000E-1	-3.8079E-9
-8.8000E-1	9.4198E-4	-9.4198E-4	-8.7999E-1	-4.6240E-9
-9.0000E-1	1.1439E-3	-1.1439E-3	-8.9997E-1	-5.6149E-9
-9.2000E-1	1.3815E-3	-1.3815E-3	-9.1998E-1	-6.7814E-9
-9.4000E-1	1.6694E-3	-1.6694E-3	-9.3995E-1	-8.1944E-9
-9.6000E-1	1.9562E-3	-1.9562E-3	-9.5706E-1	-9.6022E-9
-9.8000E-1	2.1088E-3	-2.1088E-3	-9.6344E-1	-1.0352E-8
-1.0000E+0	2.5448E-3	-2.5448E-3	-1.0000E+0	-1.2492E-8
-9.8000E-1	2.1936E-3	-2.1936E-3	-9.7997E-1	-1.0768E-8
-9.6000E-1	1.9046E-3	-1.9046E-3	-9.5904E-1	-9.3492E-9
-9.4000E-1	1.6363E-3	-1.6363E-3	-9.3995E-1	-8.0321E-9
-9.2000E-1	1.4046E-3	-1.4046E-3	-9.1998E-1	-6.8949E-9
-9.0000E-1	1.2054E-3	-1.2054E-3	-8.9997E-1	-5.9170E-9
-8.8000E-1	1.0260E-3	-1.0260E-3	-8.8000E-1	-5.0362E-9
-8.6000E-1	8.7435E-4	-8.7435E-4	-8.6000E-1	-4.2920E-9
-8.4000E-1	7.4283E-4	-7.4283E-4	-8.4003E-1	-3.6463E-9
-8.2000E-1	6.2370E-4	-6.2370E-4	-8.2002E-1	-3.0616E-9
-8.0000E-1	5.2287E-4	-5.2287E-4	-8.0005E-1	-2.5666E-9
-7.8000E-1	4.3760E-4	-4.3760E-4	-7.8001E-1	-2.1481E-9
-7.6000E-1	3.6829E-4	-3.6829E-4	-7.6002E-1	-1.8078E-9
-7.4000E-1	3.0654E-4	-3.0654E-4	-7.3998E-1	-1.5047E-9
-7.2000E-1	2.5289E-4	-2.5289E-4	-7.2000E-1	-1.2414E-9
-7.0000E-1	2.0679E-4	-2.0679E-4	-6.9997E-1	-1.0151E-9
-6.8000E-1	1.5239E-4	-1.5239E-4	-6.6150E-1	-7.4804E-10
-6.6000E-1	1.3607E-4	-1.3607E-4	-6.5995E-1	-6.6794E-10
-6.4000E-1	1.1017E-4	-1.1017E-4	-6.3995E-1	-5.4081E-10
-6.2000E-1	8.9961E-5	-8.9961E-5	-6.1997E-1	-4.4159E-10
