voltage		Abs J		  J    		Voltage		Current
0.0000E+0	8.8143E-7	-8.8143E-7	9.0579E-6	-4.3267E-12
2.0000E-2	3.2507E-8	-3.2507E-8	2.0018E-2	-1.5957E-13
4.0000E-2	1.0052E-7	1.0052E-7	4.0020E-2	4.9340E-13
6.0000E-2	1.4223E-7	1.4223E-7	5.9989E-2	6.9816E-13
8.0000E-2	1.6422E-7	1.6422E-7	7.9979E-2	8.0609E-13
1.0000E-1	1.9353E-7	1.9353E-7	9.9947E-2	9.4999E-13
1.2000E-1	2.2379E-7	2.2379E-7	1.1995E-1	1.0985E-12
1.4000E-1	2.6555E-7	2.6555E-7	1.3997E-1	1.3035E-12
1.6000E-1	3.0582E-7	3.0582E-7	1.5997E-1	1.5012E-12
1.8000E-1	3.3969E-7	3.3969E-7	1.7999E-1	1.6675E-12
2.0000E-1	3.8357E-7	3.8357E-7	1.9998E-1	1.8828E-12
2.2000E-1	4.1534E-7	4.1534E-7	2.2001E-1	2.0388E-12
2.4000E-1	4.6480E-7	4.6480E-7	2.4000E-1	2.2816E-12
2.6000E-1	5.2129E-7	5.2129E-7	2.6003E-1	2.5589E-12
2.8000E-1	5.9359E-7	5.9359E-7	2.8004E-1	2.9138E-12
3.0000E-1	6.4389E-7	6.4389E-7	3.0001E-1	3.1607E-12
3.2000E-1	7.0446E-7	7.0446E-7	3.2001E-1	3.4580E-12
3.4000E-1	7.8392E-7	7.8392E-7	3.3998E-1	3.8481E-12
3.6000E-1	8.5054E-7	8.5054E-7	3.5998E-1	4.1751E-12
3.8000E-1	9.2126E-7	9.2126E-7	3.7998E-1	4.5222E-12
4.0000E-1	1.0244E-6	1.0244E-6	3.9995E-1	5.0287E-12
4.2000E-1	1.1023E-6	1.1023E-6	4.1998E-1	5.4110E-12
4.4000E-1	1.1965E-6	1.1965E-6	4.3998E-1	5.8731E-12
4.6000E-1	1.2956E-6	1.2956E-6	4.6002E-1	6.3596E-12
4.8000E-1	1.4038E-6	1.4038E-6	4.8004E-1	6.8911E-12
5.0000E-1	1.5062E-6	1.5062E-6	5.0004E-1	7.3936E-12
5.2000E-1	1.6373E-6	1.6373E-6	5.2007E-1	8.0372E-12
5.4000E-1	1.7786E-6	1.7786E-6	5.4005E-1	8.7306E-12
5.6000E-1	1.9653E-6	1.9653E-6	5.6006E-1	9.6473E-12
5.8000E-1	2.1558E-6	2.1558E-6	5.8004E-1	1.0582E-11
6.0000E-1	2.3160E-6	2.3160E-6	6.0002E-1	1.1368E-11
6.2000E-1	2.5230E-6	2.5230E-6	6.2003E-1	1.2385E-11
6.4000E-1	2.7248E-6	2.7248E-6	6.4000E-1	1.3375E-11
6.6000E-1	2.9878E-6	2.9878E-6	6.6001E-1	1.4666E-11
6.8000E-1	3.2842E-6	3.2842E-6	6.8000E-1	1.6121E-11
7.0000E-1	3.6006E-6	3.6006E-6	7.0002E-1	1.7674E-11
7.2000E-1	3.9128E-6	3.9128E-6	7.2005E-1	1.9207E-11
7.4000E-1	4.3422E-6	4.3422E-6	7.4004E-1	2.1315E-11
7.6000E-1	4.7571E-6	4.7571E-6	7.6006E-1	2.3351E-11
7.8000E-1	5.2575E-6	5.2575E-6	7.8006E-1	2.5808E-11
8.0000E-1	5.7185E-6	5.7185E-6	8.0009E-1	2.8071E-11
8.2000E-1	6.2984E-6	6.2984E-6	8.2009E-1	3.0917E-11
8.4000E-1	6.9787E-6	6.9787E-6	8.4006E-1	3.4257E-11
8.6000E-1	7.7479E-6	7.7479E-6	8.6007E-1	3.8032E-11
8.8000E-1	8.4130E-6	8.4130E-6	8.8003E-1	4.1297E-11
9.0000E-1	9.1944E-6	9.1944E-6	9.0003E-1	4.5133E-11
9.2000E-1	1.0163E-5	1.0163E-5	9.2000E-1	4.9889E-11
9.4000E-1	1.1480E-5	1.1480E-5	9.4001E-1	5.6350E-11
9.6000E-1	1.2184E-5	1.2184E-5	9.6004E-1	5.9810E-11
9.8000E-1	1.3428E-5	1.3428E-5	9.8004E-1	6.5912E-11
1.0000E+0	1.4956E-5	1.4956E-5	1.0001E+0	7.3416E-11
9.8000E-1	1.3683E-5	1.3683E-5	9.8004E-1	6.7165E-11
9.6000E-1	1.2130E-5	1.2130E-5	9.6004E-1	5.9544E-11
9.4000E-1	1.0636E-5	1.0636E-5	9.4001E-1	5.2209E-11
9.2000E-1	9.8362E-6	9.8362E-6	9.2000E-1	4.8283E-11
9.0000E-1	8.4298E-6	8.4298E-6	9.0003E-1	4.1380E-11
8.8000E-1	7.5273E-6	7.5273E-6	8.8003E-1	3.6950E-11
8.6000E-1	6.5747E-6	6.5747E-6	8.6006E-1	3.2273E-11
8.4000E-1	5.9795E-6	5.9795E-6	8.4007E-1	2.9352E-11
8.2000E-1	5.3318E-6	5.3318E-6	8.2009E-1	2.6172E-11
8.0000E-1	4.9256E-6	4.9256E-6	8.0009E-1	2.4179E-11
7.8000E-1	3.8035E-6	3.8035E-6	7.8006E-1	1.8670E-11
7.6000E-1	3.8297E-6	3.8297E-6	7.6006E-1	1.8799E-11
7.4000E-1	3.1496E-6	3.1496E-6	7.4004E-1	1.5461E-11
7.2000E-1	2.6975E-6	2.6975E-6	7.2005E-1	1.3242E-11
7.0000E-1	2.2095E-6	2.2095E-6	7.0002E-1	1.0846E-11
6.8000E-1	1.2886E-6	1.2886E-6	6.7999E-1	6.3254E-12
6.6000E-1	1.0894E-6	1.0894E-6	6.6000E-1	5.3474E-12
6.4000E-1	1.5547E-6	1.5547E-6	6.4000E-1	7.6316E-12
6.2000E-1	1.5474E-6	1.5474E-6	6.2003E-1	7.5958E-12
6.0000E-1	1.2471E-6	1.2471E-6	6.0002E-1	6.1219E-12
5.8000E-1	4.1174E-6	4.1174E-6	5.8005E-1	2.0211E-11
5.6000E-1	1.7806E-6	1.7806E-6	5.6006E-1	8.7407E-12
5.4000E-1	6.8840E-7	6.8840E-7	5.4006E-1	3.3792E-12
5.2000E-1	4.6216E-7	4.6216E-7	5.2006E-1	2.2686E-12
5.0000E-1	7.4556E-7	7.4556E-7	5.0004E-1	3.6597E-12
4.8000E-1	1.3323E-6	1.3323E-6	4.8004E-1	6.5397E-12
4.6000E-1	1.5391E-7	1.5391E-7	4.6001E-1	7.5549E-13
4.4000E-1	5.6739E-7	-5.6739E-7	4.3999E-1	-2.7852E-12
4.2000E-1	2.8754E-7	-2.8754E-7	4.1997E-1	-1.4114E-12
4.0000E-1	6.8934E-7	6.8934E-7	3.9995E-1	3.3838E-12
3.8000E-1	2.0274E-6	2.0274E-6	3.7998E-1	9.9522E-12
3.6000E-1	1.0444E-7	1.0444E-7	3.5998E-1	5.1266E-13
3.4000E-1	1.7459E-6	-1.7459E-6	3.3996E-1	-8.5703E-12
3.2000E-1	2.6716E-7	-2.6716E-7	3.2001E-1	-1.3114E-12
3.0000E-1	1.6368E-7	-1.6368E-7	3.0001E-1	-8.0345E-13
2.8000E-1	7.7302E-7	7.7302E-7	2.8004E-1	3.7946E-12
2.6000E-1	3.7570E-7	-3.7570E-7	2.6004E-1	-1.8442E-12
2.4000E-1	1.0418E-7	1.0418E-7	2.4000E-1	5.1137E-13
2.2000E-1	2.6504E-6	2.6504E-6	2.2001E-1	1.3010E-11
2.0000E-1	1.0942E-6	1.0942E-6	1.9998E-1	5.3711E-12
1.8000E-1	1.3938E-7	1.3938E-7	1.8000E-1	6.8418E-13
1.6000E-1	1.4898E-7	-1.4898E-7	1.5995E-1	-7.3131E-13
1.4000E-1	7.7780E-7	-7.7780E-7	1.3997E-1	-3.8180E-12
1.2000E-1	1.5691E-7	-1.5691E-7	1.1994E-1	-7.7022E-13
1.0000E-1	8.7235E-7	8.7235E-7	9.9953E-2	4.2821E-12
8.0000E-2	9.8513E-7	-9.8513E-7	7.9975E-2	-4.8357E-12
6.0000E-2	1.9110E-7	-1.9110E-7	5.9988E-2	-9.3804E-13
4.0000E-2	1.1523E-6	1.1523E-6	4.0023E-2	5.6563E-12
2.0000E-2	1.4661E-7	1.4661E-7	2.0018E-2	7.1966E-13
0.0000E+0	6.2698E-7	-6.2698E-7	1.4935E-5	-3.0777E-12
-2.0000E-2	2.2437E-7	-2.2437E-7	-1.9943E-2	-1.1013E-12
-4.0000E-2	9.9683E-7	9.9683E-7	-3.9940E-2	4.8932E-12
-6.0000E-2	1.8065E-7	1.8065E-7	-5.9912E-2	8.8678E-13
-8.0000E-2	5.8740E-8	-5.8740E-8	-7.9908E-2	-2.8834E-13
-1.0000E-1	1.6319E-7	-1.6319E-7	-9.9877E-2	-8.0107E-13
-1.2000E-1	2.2339E-7	-2.2339E-7	-1.1988E-1	-1.0966E-12
-1.4000E-1	2.7240E-7	-2.7240E-7	-1.3987E-1	-1.3371E-12
-1.6000E-1	3.0933E-7	-3.0933E-7	-1.5991E-1	-1.5184E-12
-1.8000E-1	3.5863E-7	-3.5863E-7	-1.7991E-1	-1.7604E-12
-2.0000E-1	4.0939E-7	-4.0939E-7	-1.9993E-1	-2.0096E-12
-2.2000E-1	4.8141E-7	-4.8141E-7	-2.1993E-1	-2.3631E-12
-2.4000E-1	5.4563E-7	-5.4563E-7	-2.3996E-1	-2.6783E-12
-2.6000E-1	6.4862E-7	-6.4862E-7	-2.5996E-1	-3.1839E-12
-2.8000E-1	7.6358E-7	-7.6358E-7	-2.7997E-1	-3.7482E-12
-3.0000E-1	9.0303E-7	-9.0303E-7	-2.9997E-1	-4.4328E-12
-3.2000E-1	1.0854E-6	-1.0854E-6	-3.1995E-1	-5.3278E-12
-3.4000E-1	1.3411E-6	-1.3411E-6	-3.3994E-1	-6.5833E-12
-3.6000E-1	1.6455E-6	-1.6455E-6	-3.5991E-1	-8.0774E-12
-3.8000E-1	2.0721E-6	-2.0721E-6	-3.7992E-1	-1.0171E-11
-4.0000E-1	2.4281E-6	-2.4281E-6	-3.9990E-1	-1.1919E-11
-4.2000E-1	2.9458E-6	-2.9458E-6	-4.1993E-1	-1.4460E-11
-4.4000E-1	3.6061E-6	-3.6061E-6	-4.3994E-1	-1.7702E-11
-4.6000E-1	4.4270E-6	-4.4270E-6	-4.5997E-1	-2.1731E-11
-4.8000E-1	5.4118E-6	-5.4118E-6	-4.7996E-1	-2.6565E-11
-5.0000E-1	6.7580E-6	-6.7580E-6	-4.9999E-1	-3.3173E-11
-5.2000E-1	8.3938E-6	-8.3938E-6	-5.2000E-1	-4.1203E-11
-5.4000E-1	9.9028E-6	-9.9028E-6	-5.4002E-1	-4.8610E-11
-5.6000E-1	1.2160E-5	-1.2160E-5	-5.6000E-1	-5.9692E-11
-5.8000E-1	1.4952E-5	-1.4952E-5	-5.7716E-1	-7.3396E-11
-6.0000E-1	3.1201E-6	-3.1201E-6	-5.9996E-1	-1.5316E-11
-6.2000E-1	2.0932E-5	-2.0932E-5	-6.1996E-1	-1.0275E-10
-6.4000E-1	2.8546E-5	-2.8546E-5	-6.3994E-1	-1.4012E-10
-6.6000E-1	3.5295E-5	-3.5295E-5	-6.5994E-1	-1.7325E-10
-6.8000E-1	4.4033E-5	-4.4033E-5	-6.7997E-1	-2.1615E-10
-7.0000E-1	5.3881E-5	-5.3881E-5	-6.9997E-1	-2.6449E-10
-7.2000E-1	6.5491E-5	-6.5491E-5	-7.2000E-1	-3.2148E-10
-7.4000E-1	7.9404E-5	-7.9404E-5	-7.3999E-1	-3.8977E-10
-7.6000E-1	9.6350E-5	-9.6350E-5	-7.6002E-1	-4.7296E-10
-7.8000E-1	1.1607E-4	-1.1607E-4	-7.8002E-1	-5.6976E-10
-8.0000E-1	1.4024E-4	-1.4024E-4	-8.0005E-1	-6.8838E-10
-8.2000E-1	1.6877E-4	-1.6877E-4	-8.2002E-1	-8.2847E-10
-8.4000E-1	2.0583E-4	-2.0583E-4	-8.4002E-1	-1.0103E-9
-8.6000E-1	2.4663E-4	-2.4663E-4	-8.6000E-1	-1.2107E-9
-8.8000E-1	2.9429E-4	-2.9429E-4	-8.7999E-1	-1.4446E-9
-9.0000E-1	3.5167E-4	-3.5167E-4	-8.9996E-1	-1.7263E-9
-9.2000E-1	4.1846E-4	-4.1846E-4	-9.1996E-1	-2.0541E-9
-9.4000E-1	4.9658E-4	-4.9658E-4	-9.3995E-1	-2.4376E-9
-9.6000E-1	5.8913E-4	-5.8913E-4	-9.5998E-1	-2.8919E-9
-9.8000E-1	6.9247E-4	-6.9247E-4	-9.7998E-1	-3.3992E-9
-1.0000E+0	8.1717E-4	-8.1717E-4	-1.0000E+0	-4.0112E-9
-9.8000E-1	6.8669E-4	-6.8669E-4	-9.7998E-1	-3.3708E-9
-9.6000E-1	5.8157E-4	-5.8157E-4	-9.5998E-1	-2.8548E-9
-9.4000E-1	4.8939E-4	-4.8939E-4	-9.3995E-1	-2.4023E-9
-9.2000E-1	4.0911E-4	-4.0911E-4	-9.1997E-1	-2.0082E-9
-9.0000E-1	3.4380E-4	-3.4380E-4	-8.9996E-1	-1.6876E-9
-8.8000E-1	2.8976E-4	-2.8976E-4	-8.7999E-1	-1.4223E-9
-8.6000E-1	2.4093E-4	-2.4093E-4	-8.5999E-1	-1.1826E-9
-8.4000E-1	1.7337E-4	-1.7337E-4	-8.0790E-1	-8.5101E-10
-8.2000E-1	1.5594E-4	-1.5594E-4	-8.0820E-1	-7.6546E-10
-8.0000E-1	1.3827E-4	-1.3827E-4	-8.0005E-1	-6.7872E-10
-7.8000E-1	1.1606E-4	-1.1606E-4	-7.8002E-1	-5.6973E-10
-7.6000E-1	9.4395E-5	-9.4395E-5	-7.6002E-1	-4.6336E-10
-7.4000E-1	8.0748E-5	-8.0748E-5	-7.3999E-1	-3.9637E-10
-7.2000E-1	6.5877E-5	-6.5877E-5	-7.2000E-1	-3.2337E-10
-7.0000E-1	5.4226E-5	-5.4226E-5	-6.9997E-1	-2.6618E-10
-6.8000E-1	4.4375E-5	-4.4375E-5	-6.7997E-1	-2.1783E-10
-6.6000E-1	3.8347E-5	-3.8347E-5	-6.5995E-1	-1.8824E-10
-6.4000E-1	2.8873E-5	-2.8873E-5	-6.3994E-1	-1.4173E-10
-6.2000E-1	2.5432E-5	-2.5432E-5	-6.1997E-1	-1.2484E-10
-6.0000E-1	2.0707E-5	-2.0707E-5	-5.9995E-1	-1.0164E-10
-5.8000E-1	1.4326E-5	-1.4326E-5	-5.7935E-1	-7.0322E-11
-5.6000E-1	1.3375E-5	-1.3375E-5	-5.6000E-1	-6.5652E-11
-5.4000E-1	1.0777E-5	-1.0777E-5	-5.4003E-1	-5.2900E-11
-5.2000E-1	8.7221E-6	-8.7221E-6	-5.2000E-1	-4.2814E-11
-5.0000E-1	7.1836E-6	-7.1836E-6	-5.0000E-1	-3.5262E-11
-4.8000E-1	5.7148E-6	-5.7148E-6	-4.7996E-1	-2.8052E-11
-4.6000E-1	4.6752E-6	-4.6752E-6	-4.5997E-1	-2.2949E-11
-4.4000E-1	3.8270E-6	-3.8270E-6	-4.3993E-1	-1.8786E-11
-4.2000E-1	2.9990E-6	-2.9990E-6	-4.1993E-1	-1.4721E-11
-4.0000E-1	2.3695E-6	-2.3695E-6	-3.9989E-1	-1.1631E-11
-3.8000E-1	1.8818E-6	-1.8818E-6	-3.7992E-1	-9.2374E-12
-3.6000E-1	1.4348E-6	-1.4348E-6	-3.5991E-1	-7.0431E-12
-3.4000E-1	1.1206E-6	-1.1206E-6	-3.3994E-1	-5.5009E-12
-3.2000E-1	8.7746E-7	-8.7746E-7	-3.1995E-1	-4.3072E-12
-3.0000E-1	6.6189E-7	-6.6189E-7	-2.9997E-1	-3.2490E-12
-2.8000E-1	5.5071E-7	-5.5071E-7	-2.7997E-1	-2.7033E-12
-2.6000E-1	3.7474E-7	-3.7474E-7	-2.5996E-1	-1.8395E-12
-2.4000E-1	2.7435E-7	-2.7435E-7	-2.3996E-1	-1.3467E-12
-2.2000E-1	1.9142E-7	-1.9142E-7	-2.1993E-1	-9.3964E-13
-2.0000E-1	9.5879E-8	-9.5879E-8	-1.9993E-1	-4.7065E-13
-1.8000E-1	4.7116E-8	-4.7116E-8	-1.7991E-1	-2.3128E-13
-1.6000E-1	1.0597E-8	-1.0597E-8	-1.5990E-1	-5.2017E-14
-1.4000E-1	2.4937E-8	2.4937E-8	-1.3987E-1	1.2241E-13
-1.2000E-1	6.4101E-8	6.4101E-8	-1.1988E-1	3.1465E-13
-1.0000E-1	9.8378E-8	9.8378E-8	-9.9882E-2	4.8291E-13
-8.0000E-2	1.2169E-7	1.2169E-7	-7.9902E-2	5.9733E-13
-6.0000E-2	1.4553E-7	1.4553E-7	-5.9911E-2	7.1437E-13
-4.0000E-2	1.6881E-7	1.6881E-7	-3.9944E-2	8.2866E-13
-2.0000E-2	1.8466E-7	1.8466E-7	-1.9935E-2	9.0644E-13
-0.0000E+0	2.0791E-7	2.0791E-7	3.7265E-5	1.0206E-12
0.0000E+0	1.4915E-7	1.4915E-7	3.9448E-5	7.3215E-13
2.0000E-2	1.9802E-7	1.9802E-7	2.0019E-2	9.7202E-13
4.0000E-2	2.2508E-7	2.2508E-7	4.0022E-2	1.1049E-12
6.0000E-2	2.5002E-7	2.5002E-7	5.9987E-2	1.2273E-12
8.0000E-2	2.7415E-7	2.7415E-7	7.9977E-2	1.3457E-12
1.0000E-1	2.9016E-7	2.9016E-7	9.9945E-2	1.4243E-12
1.2000E-1	3.2106E-7	3.2106E-7	1.1995E-1	1.5760E-12
1.4000E-1	3.4754E-7	3.4754E-7	1.3997E-1	1.7060E-12
1.6000E-1	3.7900E-7	3.7900E-7	1.5997E-1	1.8604E-12
1.8000E-1	4.0478E-7	4.0478E-7	1.8000E-1	1.9869E-12
2.0000E-1	4.3796E-7	4.3796E-7	1.9998E-1	2.1498E-12
2.2000E-1	4.6883E-7	4.6883E-7	2.2001E-1	2.3013E-12
2.4000E-1	5.0733E-7	5.0733E-7	2.4000E-1	2.4903E-12
2.6000E-1	5.4291E-7	5.4291E-7	2.6003E-1	2.6650E-12
2.8000E-1	5.8714E-7	5.8714E-7	2.8005E-1	2.8821E-12
3.0000E-1	6.3193E-7	6.3193E-7	3.0001E-1	3.1020E-12
3.2000E-1	6.7429E-7	6.7429E-7	3.2002E-1	3.3099E-12
3.4000E-1	7.2833E-7	7.2833E-7	3.3997E-1	3.5752E-12
3.6000E-1	7.8347E-7	7.8347E-7	3.5997E-1	3.8459E-12
3.8000E-1	8.3644E-7	8.3644E-7	3.7998E-1	4.1059E-12
4.0000E-1	8.9774E-7	8.9774E-7	3.9995E-1	4.4068E-12
4.2000E-1	9.8223E-7	9.8223E-7	4.1998E-1	4.8215E-12
4.4000E-1	1.0348E-6	1.0348E-6	4.3999E-1	5.0797E-12
4.6000E-1	1.1091E-6	1.1091E-6	4.6002E-1	5.4444E-12
4.8000E-1	1.1887E-6	1.1887E-6	4.8004E-1	5.8349E-12
5.0000E-1	1.2938E-6	1.2938E-6	5.0004E-1	6.3508E-12
5.2000E-1	1.4265E-6	1.4265E-6	5.2007E-1	7.0021E-12
5.4000E-1	1.5385E-6	1.5385E-6	5.4005E-1	7.5519E-12
5.6000E-1	1.6500E-6	1.6500E-6	5.6006E-1	8.0992E-12
5.8000E-1	1.7931E-6	1.7931E-6	5.8004E-1	8.8017E-12
6.0000E-1	1.9562E-6	1.9562E-6	6.0002E-1	9.6025E-12
6.2000E-1	2.1194E-6	2.1194E-6	6.2003E-1	1.0404E-11
6.4000E-1	2.3520E-6	2.3520E-6	6.4000E-1	1.1546E-11
6.6000E-1	2.5917E-6	2.5917E-6	6.6000E-1	1.2722E-11
6.8000E-1	2.7968E-6	2.7968E-6	6.7999E-1	1.3729E-11
7.0000E-1	3.0975E-6	3.0975E-6	7.0002E-1	1.5205E-11
7.2000E-1	3.4729E-6	3.4729E-6	7.2005E-1	1.7047E-11
7.4000E-1	3.8794E-6	3.8794E-6	7.4004E-1	1.9043E-11
7.6000E-1	4.2678E-6	4.2678E-6	7.6006E-1	2.0949E-11
7.8000E-1	4.5644E-6	4.5644E-6	7.8006E-1	2.2406E-11
8.0000E-1	5.0693E-6	5.0693E-6	8.0008E-1	2.4884E-11
8.2000E-1	5.6966E-6	5.6966E-6	8.2010E-1	2.7963E-11
8.4000E-1	6.2904E-6	6.2904E-6	8.4006E-1	3.0878E-11
8.6000E-1	7.0709E-6	7.0709E-6	8.6007E-1	3.4709E-11
8.8000E-1	7.7677E-6	7.7677E-6	8.8002E-1	3.8130E-11
9.0000E-1	8.4237E-6	8.4237E-6	9.0002E-1	4.1350E-11
9.2000E-1	9.3826E-6	9.3826E-6	9.2000E-1	4.6057E-11
9.4000E-1	1.0407E-5	1.0407E-5	9.4001E-1	5.1087E-11
9.6000E-1	1.1488E-5	1.1488E-5	9.6005E-1	5.6390E-11
9.8000E-1	1.2851E-5	1.2851E-5	9.8004E-1	6.3083E-11
1.0000E+0	1.4055E-5	1.4055E-5	1.0001E+0	6.8990E-11
9.8000E-1	1.3067E-5	1.3067E-5	9.8004E-1	6.4143E-11
9.6000E-1	1.1630E-5	1.1630E-5	9.6004E-1	5.7087E-11
9.4000E-1	1.0275E-5	1.0275E-5	9.4001E-1	5.0435E-11
9.2000E-1	9.2178E-6	9.2178E-6	9.2000E-1	4.5248E-11
9.0000E-1	8.1002E-6	8.1002E-6	9.0003E-1	3.9762E-11
8.8000E-1	7.1621E-6	7.1621E-6	8.8003E-1	3.5157E-11
8.6000E-1	6.2040E-6	6.2040E-6	8.6007E-1	3.0454E-11
8.4000E-1	5.5195E-6	5.5195E-6	8.4007E-1	2.7094E-11
8.2000E-1	4.9070E-6	4.9070E-6	8.2009E-1	2.4087E-11
8.0000E-1	4.3286E-6	4.3286E-6	8.0009E-1	2.1248E-11
7.8000E-1	3.8890E-6	3.8890E-6	7.8006E-1	1.9090E-11
7.6000E-1	3.4753E-6	3.4753E-6	7.6006E-1	1.7059E-11
7.4000E-1	3.0148E-6	3.0148E-6	7.4003E-1	1.4799E-11
7.2000E-1	2.7149E-6	2.7149E-6	7.2005E-1	1.3327E-11
7.0000E-1	2.3751E-6	2.3751E-6	7.0002E-1	1.1659E-11
6.8000E-1	2.1074E-6	2.1074E-6	6.7999E-1	1.0345E-11
6.6000E-1	1.8285E-6	1.8285E-6	6.6001E-1	8.9755E-12
6.4000E-1	1.5865E-6	1.5865E-6	6.4000E-1	7.7878E-12
6.2000E-1	1.4004E-6	1.4004E-6	6.2002E-1	6.8740E-12
6.0000E-1	1.2283E-6	1.2283E-6	6.0002E-1	6.0295E-12
5.8000E-1	1.1001E-6	1.1001E-6	5.8003E-1	5.3999E-12
5.6000E-1	9.6177E-7	9.6177E-7	5.6006E-1	4.7211E-12
5.4000E-1	8.3038E-7	8.3038E-7	5.4006E-1	4.0761E-12
5.2000E-1	7.2550E-7	7.2550E-7	5.2007E-1	3.5613E-12
5.0000E-1	6.3453E-7	6.3453E-7	5.0004E-1	3.1148E-12
4.8000E-1	5.6244E-7	5.6244E-7	4.8004E-1	2.7609E-12
4.6000E-1	4.9103E-7	4.9103E-7	4.6002E-1	2.4103E-12
4.4000E-1	4.2145E-7	4.2145E-7	4.3999E-1	2.0688E-12
4.2000E-1	3.7238E-7	3.7238E-7	4.1999E-1	1.8279E-12
4.0000E-1	3.3203E-7	3.3203E-7	3.9995E-1	1.6298E-12
3.8000E-1	2.6861E-7	2.6861E-7	3.7997E-1	1.3186E-12
3.6000E-1	2.2794E-7	2.2794E-7	3.5997E-1	1.1189E-12
3.4000E-1	1.8895E-7	1.8895E-7	3.3997E-1	9.2751E-13
3.2000E-1	1.5432E-7	1.5432E-7	3.2001E-1	7.5751E-13
3.0000E-1	1.2845E-7	1.2845E-7	3.0001E-1	6.3055E-13
2.8000E-1	1.0154E-7	1.0154E-7	2.8004E-1	4.9842E-13
2.6000E-1	7.7259E-8	7.7259E-8	2.6003E-1	3.7924E-13
2.4000E-1	5.3762E-8	5.3762E-8	2.4001E-1	2.6390E-13
2.2000E-1	4.5076E-8	4.5076E-8	2.2001E-1	2.2126E-13
2.0000E-1	2.1125E-8	2.1125E-8	1.9998E-1	1.0370E-13
1.8000E-1	3.5920E-9	3.5920E-9	1.8000E-1	1.7632E-14
1.6000E-1	1.3929E-8	-1.3929E-8	1.5996E-1	-6.8375E-14
1.4000E-1	2.7753E-8	-2.7753E-8	1.3996E-1	-1.3623E-13
1.2000E-1	3.6865E-8	-3.6865E-8	1.1995E-1	-1.8096E-13
1.0000E-1	5.3883E-8	-5.3883E-8	9.9949E-2	-2.6450E-13
8.0000E-2	6.2215E-8	-6.2215E-8	7.9978E-2	-3.0540E-13
6.0000E-2	7.9002E-8	-7.9002E-8	5.9986E-2	-3.8780E-13
4.0000E-2	8.9314E-8	-8.9314E-8	4.0018E-2	-4.3842E-13
2.0000E-2	1.0674E-7	-1.0674E-7	2.0018E-2	-5.2397E-13
0.0000E+0	1.2146E-7	-1.2146E-7	1.6026E-5	-5.9622E-13
-2.0000E-2	1.3550E-7	-1.3550E-7	-1.9937E-2	-6.6511E-13
-4.0000E-2	1.4923E-7	-1.4923E-7	-3.9942E-2	-7.3255E-13
-6.0000E-2	1.7163E-7	-1.7163E-7	-5.9911E-2	-8.4251E-13
-8.0000E-2	1.8599E-7	-1.8599E-7	-7.9904E-2	-9.1300E-13
-1.0000E-1	2.0898E-7	-2.0898E-7	-9.9878E-2	-1.0258E-12
-1.2000E-1	2.3605E-7	-2.3605E-7	-1.1988E-1	-1.1587E-12
-1.4000E-1	2.6455E-7	-2.6455E-7	-1.3987E-1	-1.2986E-12
-1.6000E-1	2.9932E-7	-2.9932E-7	-1.5991E-1	-1.4693E-12
-1.8000E-1	3.3531E-7	-3.3531E-7	-1.7991E-1	-1.6460E-12
-2.0000E-1	3.8216E-7	-3.8216E-7	-1.9993E-1	-1.8759E-12
-2.2000E-1	4.4210E-7	-4.4210E-7	-2.1993E-1	-2.1702E-12
-2.4000E-1	5.0459E-7	-5.0459E-7	-2.3996E-1	-2.4769E-12
-2.6000E-1	5.9169E-7	-5.9169E-7	-2.5996E-1	-2.9044E-12
-2.8000E-1	7.0823E-7	-7.0823E-7	-2.7997E-1	-3.4765E-12
-3.0000E-1	8.3244E-7	-8.3244E-7	-2.9997E-1	-4.0862E-12
-3.2000E-1	9.7867E-7	-9.7867E-7	-3.1995E-1	-4.8040E-12
-3.4000E-1	1.1936E-6	-1.1936E-6	-3.3994E-1	-5.8592E-12
-3.6000E-1	1.4285E-6	-1.4285E-6	-3.5991E-1	-7.0119E-12
-3.8000E-1	1.6871E-6	-1.6871E-6	-3.7992E-1	-8.2817E-12
-4.0000E-1	2.0286E-6	-2.0286E-6	-3.9989E-1	-9.9580E-12
-4.2000E-1	2.5058E-6	-2.5058E-6	-4.1993E-1	-1.2301E-11
-4.4000E-1	3.0698E-6	-3.0698E-6	-4.3994E-1	-1.5069E-11
-4.6000E-1	3.6994E-6	-3.6994E-6	-4.5997E-1	-1.8159E-11
-4.8000E-1	4.5779E-6	-4.5779E-6	-4.7996E-1	-2.2471E-11
-5.0000E-1	5.6169E-6	-5.6169E-6	-5.0000E-1	-2.7572E-11
-5.2000E-1	6.8942E-6	-6.8942E-6	-5.2000E-1	-3.3842E-11
-5.4000E-1	8.5655E-6	-8.5655E-6	-5.4002E-1	-4.2046E-11
-5.6000E-1	1.0353E-5	-1.0353E-5	-5.6000E-1	-5.0821E-11
-5.8000E-1	1.2479E-5	-1.2479E-5	-5.8000E-1	-6.1254E-11
-6.0000E-1	1.5135E-5	-1.5135E-5	-5.9508E-1	-7.4296E-11
-6.2000E-1	1.6937E-5	-1.6937E-5	-5.8477E-1	-8.3137E-11
-6.4000E-1	1.8191E-5	-1.8191E-5	-5.5189E-1	-8.9293E-11
-6.6000E-1	6.8111E-6	-6.8111E-6	-6.5993E-1	-3.3434E-11
-6.8000E-1	2.1017E-5	-2.1017E-5	-6.7993E-1	-1.0317E-10
-7.0000E-1	4.3297E-5	-4.3297E-5	-6.9997E-1	-2.1254E-10
-7.2000E-1	5.3574E-5	-5.3574E-5	-7.2000E-1	-2.6298E-10
-7.4000E-1	6.5483E-5	-6.5483E-5	-7.3999E-1	-3.2144E-10
-7.6000E-1	7.8537E-5	-7.8537E-5	-7.6002E-1	-3.8552E-10
-7.8000E-1	9.5802E-5	-9.5802E-5	-7.8002E-1	-4.7027E-10
-8.0000E-1	1.1542E-4	-1.1542E-4	-8.0005E-1	-5.6654E-10
-8.2000E-1	1.3747E-4	-1.3747E-4	-8.2002E-1	-6.7481E-10
-8.4000E-1	1.5507E-4	-1.5507E-4	-8.2804E-1	-7.6119E-10
-8.6000E-1	1.6618E-4	-1.6618E-4	-8.1620E-1	-8.1575E-10
-8.8000E-1	2.3525E-4	-2.3525E-4	-8.7999E-1	-1.1548E-9
-9.0000E-1	2.8421E-4	-2.8421E-4	-8.9996E-1	-1.3951E-9
-9.2000E-1	3.4118E-4	-3.4118E-4	-9.1997E-1	-1.6748E-9
-9.4000E-1	4.0966E-4	-4.0966E-4	-9.3995E-1	-2.0109E-9
-9.6000E-1	4.8621E-4	-4.8621E-4	-9.5998E-1	-2.3867E-9
-9.8000E-1	5.7748E-4	-5.7748E-4	-9.7998E-1	-2.8347E-9
-1.0000E+0	6.8868E-4	-6.8868E-4	-1.0000E+0	-3.3805E-9
-9.8000E-1	5.7918E-4	-5.7918E-4	-9.7998E-1	-2.8430E-9
-9.6000E-1	4.7930E-4	-4.7930E-4	-9.5998E-1	-2.3528E-9
-9.4000E-1	4.0433E-4	-4.0433E-4	-9.3994E-1	-1.9848E-9
-9.2000E-1	3.3861E-4	-3.3861E-4	-9.1997E-1	-1.6621E-9
-9.0000E-1	2.8316E-4	-2.8316E-4	-8.9996E-1	-1.3899E-9
-8.8000E-1	2.3560E-4	-2.3560E-4	-8.7999E-1	-1.1565E-9
-8.6000E-1	1.7318E-4	-1.7318E-4	-8.2803E-1	-8.5010E-10
-8.4000E-1	1.5512E-4	-1.5512E-4	-8.2924E-1	-7.6142E-10
-8.2000E-1	1.3632E-4	-1.3632E-4	-8.2003E-1	-6.6916E-10
-8.0000E-1	1.1457E-4	-1.1457E-4	-8.0005E-1	-5.6237E-10
-7.8000E-1	9.5290E-5	-9.5290E-5	-7.8002E-1	-4.6775E-10
-7.6000E-1	7.9093E-5	-7.9093E-5	-7.6002E-1	-3.8825E-10
-7.4000E-1	6.4962E-5	-6.4962E-5	-7.3999E-1	-3.1888E-10
-7.2000E-1	5.3771E-5	-5.3771E-5	-7.2000E-1	-2.6395E-10
-7.0000E-1	4.4588E-5	-4.4588E-5	-6.9997E-1	-2.1887E-10
-6.8000E-1	3.6800E-5	-3.6800E-5	-6.7997E-1	-1.8064E-10
-6.6000E-1	2.9919E-5	-2.9919E-5	-6.5994E-1	-1.4687E-10
-6.4000E-1	2.4140E-5	-2.4140E-5	-6.3994E-1	-1.1850E-10
