voltage		Abs J		  J    		Voltage		Current
0.0000E+0	7.1336E-9	-7.1336E-9	4.1130E-5	-8.9644E-14
2.0000E-2	4.5757E-9	4.5757E-9	2.0056E-2	5.7500E-14
4.0000E-2	7.7244E-9	7.7244E-9	4.0034E-2	9.7068E-14
6.0000E-2	9.1727E-9	9.1727E-9	6.0045E-2	1.1527E-13
8.0000E-2	1.1434E-8	1.1434E-8	8.0058E-2	1.4368E-13
1.0000E-1	1.4754E-8	1.4754E-8	1.0004E-1	1.8541E-13
1.2000E-1	1.7537E-8	1.7537E-8	1.2005E-1	2.2038E-13
1.4000E-1	2.1663E-8	2.1663E-8	1.4006E-1	2.7223E-13
1.6000E-1	2.6961E-8	2.6961E-8	1.6004E-1	3.3880E-13
1.8000E-1	2.9884E-8	2.9884E-8	1.8005E-1	3.7554E-13
2.0000E-1	3.5685E-8	3.5685E-8	2.0005E-1	4.4843E-13
2.2000E-1	4.2185E-8	4.2185E-8	2.2002E-1	5.3011E-13
2.4000E-1	4.9708E-8	4.9708E-8	2.4003E-1	6.2465E-13
2.6000E-1	5.8062E-8	5.8062E-8	2.6004E-1	7.2963E-13
2.8000E-1	7.1013E-8	7.1013E-8	2.8005E-1	8.9237E-13
3.0000E-1	8.6764E-8	8.6764E-8	3.0003E-1	1.0903E-12
3.2000E-1	1.0144E-7	1.0144E-7	3.2005E-1	1.2747E-12
3.4000E-1	1.1952E-7	1.1952E-7	3.4006E-1	1.5019E-12
3.6000E-1	1.4394E-7	1.4394E-7	3.6004E-1	1.8088E-12
3.8000E-1	1.6481E-7	1.6481E-7	3.8005E-1	2.0711E-12
4.0000E-1	1.9929E-7	1.9929E-7	4.0006E-1	2.5043E-12
4.2000E-1	2.3692E-7	2.3692E-7	4.2004E-1	2.9772E-12
4.4000E-1	2.7463E-7	2.7463E-7	4.4005E-1	3.4511E-12
4.6000E-1	3.2335E-7	3.2335E-7	4.6006E-1	4.0633E-12
4.8000E-1	3.7492E-7	3.7492E-7	4.8003E-1	4.7114E-12
5.0000E-1	4.4285E-7	4.4285E-7	5.0003E-1	5.5651E-12
5.2000E-1	5.0608E-7	5.0608E-7	5.2004E-1	6.3596E-12
5.4000E-1	5.7701E-7	5.7701E-7	5.4002E-1	7.2509E-12
5.6000E-1	6.7858E-7	6.7858E-7	5.6003E-1	8.5273E-12
5.8000E-1	7.7967E-7	7.7967E-7	5.8004E-1	9.7976E-12
6.0000E-1	9.0474E-7	9.0474E-7	6.0002E-1	1.1369E-11
6.2000E-1	1.0394E-6	1.0394E-6	6.2002E-1	1.3061E-11
6.4000E-1	1.1558E-6	1.1558E-6	6.4004E-1	1.4524E-11
6.6000E-1	1.3038E-6	1.3038E-6	6.6002E-1	1.6384E-11
6.8000E-1	1.5786E-6	1.5786E-6	6.8003E-1	1.9837E-11
7.0000E-1	1.8175E-6	1.8175E-6	7.0004E-1	2.2839E-11
7.2000E-1	2.0652E-6	2.0652E-6	7.2005E-1	2.5952E-11
7.4000E-1	2.3567E-6	2.3567E-6	7.4001E-1	2.9615E-11
7.6000E-1	2.7649E-6	2.7649E-6	7.6001E-1	3.4745E-11
7.8000E-1	3.2394E-6	3.2394E-6	7.8002E-1	4.0708E-11
8.0000E-1	3.6798E-6	3.6798E-6	8.0000E-1	4.6242E-11
8.2000E-1	4.0323E-6	4.0323E-6	8.2001E-1	5.0672E-11
8.4000E-1	4.6188E-6	4.6188E-6	8.4003E-1	5.8042E-11
8.6000E-1	5.1359E-6	5.1359E-6	8.6001E-1	6.4540E-11
8.8000E-1	5.6973E-6	5.6973E-6	8.8002E-1	7.1594E-11
9.0000E-1	6.4700E-6	6.4700E-6	9.0004E-1	8.1305E-11
9.2000E-1	7.2998E-6	7.2998E-6	9.2001E-1	9.1732E-11
9.4000E-1	7.9895E-6	7.9895E-6	9.3076E-1	1.0040E-10
9.6000E-1	8.0432E-6	8.0432E-6	9.2115E-1	1.0107E-10
9.8000E-1	8.0926E-6	8.0926E-6	9.0428E-1	1.0169E-10
1.0000E+0	1.0231E-5	1.0231E-5	1.0000E+0	1.2857E-10
9.8000E-1	1.0228E-5	1.0228E-5	9.8003E-1	1.2853E-10
9.6000E-1	8.8225E-6	8.8225E-6	9.6005E-1	1.1087E-10
9.4000E-1	7.4422E-6	7.4422E-6	9.4003E-1	9.3521E-11
9.2000E-1	7.0850E-6	7.0850E-6	9.2002E-1	8.9033E-11
9.0000E-1	6.4061E-6	6.4061E-6	9.0004E-1	8.0501E-11
8.8000E-1	5.7109E-6	5.7109E-6	8.8002E-1	7.1765E-11
8.6000E-1	4.9903E-6	4.9903E-6	8.6001E-1	6.2710E-11
8.4000E-1	4.3263E-6	4.3263E-6	8.4003E-1	5.4365E-11
8.2000E-1	3.9986E-6	3.9986E-6	8.2001E-1	5.0248E-11
8.0000E-1	3.3048E-6	3.3048E-6	8.0000E-1	4.1529E-11
7.8000E-1	2.9088E-6	2.9088E-6	7.8003E-1	3.6554E-11
7.6000E-1	2.5811E-6	2.5811E-6	7.6002E-1	3.2435E-11
7.4000E-1	2.1925E-6	2.1925E-6	7.4001E-1	2.7552E-11
7.2000E-1	1.9000E-6	1.9000E-6	7.2005E-1	2.3876E-11
7.0000E-1	1.7118E-6	1.7118E-6	7.0004E-1	2.1511E-11
6.8000E-1	1.4669E-6	1.4669E-6	6.8004E-1	1.8433E-11
6.6000E-1	1.2650E-6	1.2650E-6	6.6003E-1	1.5896E-11
6.4000E-1	1.1020E-6	1.1020E-6	6.4005E-1	1.3848E-11
6.2000E-1	9.5056E-7	9.5056E-7	6.2003E-1	1.1945E-11
6.0000E-1	8.1537E-7	8.1537E-7	6.0003E-1	1.0246E-11
5.8000E-1	6.9459E-7	6.9459E-7	5.8004E-1	8.7285E-12
5.6000E-1	6.0434E-7	6.0434E-7	5.6003E-1	7.5943E-12
5.4000E-1	5.1731E-7	5.1731E-7	5.4002E-1	6.5007E-12
5.2000E-1	4.4186E-7	4.4186E-7	5.2004E-1	5.5526E-12
5.0000E-1	3.9743E-7	3.9743E-7	5.0003E-1	4.9943E-12
4.8000E-1	3.3838E-7	3.3838E-7	4.8002E-1	4.2522E-12
4.6000E-1	2.8058E-7	2.8058E-7	4.6005E-1	3.5258E-12
4.4000E-1	2.4411E-7	2.4411E-7	4.4005E-1	3.0675E-12
4.2000E-1	2.0718E-7	2.0718E-7	4.2004E-1	2.6035E-12
4.0000E-1	1.7614E-7	1.7614E-7	4.0006E-1	2.2134E-12
3.8000E-1	1.4240E-7	1.4240E-7	3.8005E-1	1.7895E-12
3.6000E-1	1.2062E-7	1.2062E-7	3.6004E-1	1.5157E-12
3.4000E-1	1.0501E-7	1.0501E-7	3.4006E-1	1.3195E-12
3.2000E-1	9.1688E-8	9.1688E-8	3.2004E-1	1.1522E-12
3.0000E-1	7.5715E-8	7.5715E-8	3.0003E-1	9.5146E-13
2.8000E-1	6.3072E-8	6.3072E-8	2.8006E-1	7.9258E-13
2.6000E-1	5.3840E-8	5.3840E-8	2.6004E-1	6.7657E-13
2.4000E-1	4.3969E-8	4.3969E-8	2.4003E-1	5.5253E-13
2.2000E-1	3.7310E-8	3.7310E-8	2.2002E-1	4.6885E-13
2.0000E-1	3.1063E-8	3.1063E-8	2.0005E-1	3.9035E-13
1.8000E-1	2.4532E-8	2.4532E-8	1.8005E-1	3.0827E-13
1.6000E-1	1.9921E-8	1.9921E-8	1.6004E-1	2.5034E-13
1.4000E-1	1.6208E-8	1.6208E-8	1.4006E-1	2.0368E-13
1.2000E-1	1.2433E-8	1.2433E-8	1.2005E-1	1.5624E-13
1.0000E-1	9.9208E-9	9.9208E-9	1.0004E-1	1.2467E-13
8.0000E-2	6.7063E-9	6.7063E-9	8.0058E-2	8.4274E-14
6.0000E-2	5.3295E-9	5.3295E-9	6.0044E-2	6.6973E-14
4.0000E-2	2.4038E-9	2.4038E-9	4.0035E-2	3.0207E-14
2.0000E-2	2.6665E-10	2.6665E-10	2.0057E-2	3.3508E-15
0.0000E+0	1.4354E-9	-1.4354E-9	4.1806E-5	-1.8038E-14
-2.0000E-2	2.3855E-9	-2.3855E-9	-2.0050E-2	-2.9978E-14
-4.0000E-2	5.0459E-9	-5.0459E-9	-4.0063E-2	-6.3409E-14
-6.0000E-2	7.3829E-9	-7.3829E-9	-6.0074E-2	-9.2776E-14
-8.0000E-2	9.8470E-9	-9.8470E-9	-8.0052E-2	-1.2374E-13
-1.0000E-1	1.3866E-8	-1.3866E-8	-1.0007E-1	-1.7424E-13
-1.2000E-1	1.7793E-8	-1.7793E-8	-1.2008E-1	-2.2360E-13
-1.4000E-1	2.4057E-8	-2.4057E-8	-1.4008E-1	-3.0231E-13
-1.6000E-1	3.0651E-8	-3.0651E-8	-1.6006E-1	-3.8517E-13
-1.8000E-1	4.0283E-8	-4.0283E-8	-1.8007E-1	-5.0621E-13
-2.0000E-1	5.5978E-8	-5.5978E-8	-2.0007E-1	-7.0344E-13
-2.2000E-1	7.7227E-8	-7.7227E-8	-2.2008E-1	-9.7046E-13
-2.4000E-1	1.0129E-7	-1.0129E-7	-2.4006E-1	-1.2728E-12
-2.6000E-1	1.3157E-7	-1.3157E-7	-2.6006E-1	-1.6533E-12
-2.8000E-1	1.8220E-7	-1.8220E-7	-2.8008E-1	-2.2897E-12
-3.0000E-1	2.4889E-7	-2.4889E-7	-3.0010E-1	-3.1276E-12
-3.2000E-1	3.3898E-7	-3.3898E-7	-3.2008E-1	-4.2597E-12
-3.4000E-1	4.7739E-7	-4.7739E-7	-3.4009E-1	-5.9990E-12
-3.6000E-1	6.5406E-7	-6.5406E-7	-3.6010E-1	-8.2192E-12
-3.8000E-1	8.8197E-7	-8.8197E-7	-3.8011E-1	-1.1083E-11
-4.0000E-1	1.1998E-6	-1.1998E-6	-4.0009E-1	-1.5077E-11
-4.2000E-1	1.6459E-6	-1.6459E-6	-4.2010E-1	-2.0683E-11
-4.4000E-1	2.2480E-6	-2.2480E-6	-4.4011E-1	-2.8249E-11
-4.6000E-1	3.1872E-6	-3.1872E-6	-4.6008E-1	-4.0051E-11
-4.8000E-1	4.3616E-6	-4.3616E-6	-4.8008E-1	-5.4810E-11
-5.0000E-1	5.8832E-6	-5.8832E-6	-5.0009E-1	-7.3931E-11
-5.2000E-1	7.9743E-6	-7.9743E-6	-5.0487E-1	-1.0021E-10
-5.4000E-1	8.0906E-6	-8.0906E-6	-4.4756E-1	-1.0167E-10
-5.6000E-1	8.2062E-6	-8.2062E-6	-3.2612E-1	-1.0312E-10
-5.8000E-1	9.1627E-6	-9.1627E-6	-5.8010E-1	-1.1514E-10
-6.0000E-1	2.2687E-5	-2.2687E-5	-6.0011E-1	-2.8509E-10
-6.2000E-1	3.2433E-5	-3.2433E-5	-6.2009E-1	-4.0756E-10
-6.4000E-1	4.4345E-5	-4.4345E-5	-6.4010E-1	-5.5725E-10
-6.6000E-1	5.8123E-5	-5.8123E-5	-6.6012E-1	-7.3039E-10
-6.8000E-1	7.5445E-5	-7.5445E-5	-6.8013E-1	-9.4807E-10
-7.0000E-1	8.2183E-5	-8.2183E-5	-6.7679E-1	-1.0327E-9
-7.2000E-1	8.3362E-5	-8.3362E-5	-6.7501E-1	-1.0476E-9
-7.4000E-1	1.5416E-4	-1.5416E-4	-7.4010E-1	-1.9372E-9
-7.6000E-1	1.9922E-4	-1.9922E-4	-7.6011E-1	-2.5034E-9
-7.8000E-1	2.4896E-4	-2.4896E-4	-7.8008E-1	-3.1285E-9
-8.0000E-1	3.1258E-4	-3.1258E-4	-8.0009E-1	-3.9280E-9
-8.2000E-1	3.8927E-4	-3.8927E-4	-8.2010E-1	-4.8917E-9
-8.4000E-1	4.8320E-4	-4.8320E-4	-8.4008E-1	-6.0721E-9
-8.6000E-1	5.8900E-4	-5.8900E-4	-8.6010E-1	-7.4016E-9
-8.8000E-1	7.2042E-4	-7.2042E-4	-8.8011E-1	-9.0530E-9
-9.0000E-1	7.3560E-4	-7.3560E-4	-9.0012E-1	-9.2438E-9
-9.2000E-1	8.8765E-4	-8.8765E-4	-9.2010E-1	-1.1154E-8
-9.4000E-1	1.0776E-3	-1.0776E-3	-9.4012E-1	-1.3542E-8
-9.6000E-1	1.3010E-3	-1.3010E-3	-9.6013E-1	-1.6349E-8
-9.8000E-1	1.5662E-3	-1.5662E-3	-9.8013E-1	-1.9681E-8
-1.0000E+0	1.8491E-3	-1.8491E-3	-1.0001E+0	-2.3236E-8
-9.8000E-1	1.6016E-3	-1.6016E-3	-9.8013E-1	-2.0126E-8
-9.6000E-1	1.3859E-3	-1.3859E-3	-9.6013E-1	-1.7415E-8
-9.4000E-1	1.2007E-3	-1.2007E-3	-9.4012E-1	-1.5088E-8
-9.2000E-1	1.0202E-3	-1.0202E-3	-9.2010E-1	-1.2820E-8
-9.0000E-1	8.7210E-4	-8.7210E-4	-9.0012E-1	-1.0959E-8
-8.8000E-1	7.4826E-4	-7.4826E-4	-8.8011E-1	-9.4029E-9
-8.6000E-1	6.3454E-4	-6.3454E-4	-8.6010E-1	-7.9739E-9
-8.4000E-1	5.4237E-4	-5.4237E-4	-8.4009E-1	-6.8156E-9
-8.2000E-1	4.5457E-4	-4.5457E-4	-8.2010E-1	-5.7123E-9
-8.0000E-1	3.8583E-4	-3.8583E-4	-8.0009E-1	-4.8484E-9
-7.8000E-1	3.2274E-4	-3.2274E-4	-7.8008E-1	-4.0557E-9
-7.6000E-1	2.6800E-4	-2.6800E-4	-7.6011E-1	-3.3677E-9
-7.4000E-1	2.2437E-4	-2.2437E-4	-7.4011E-1	-2.8196E-9
-7.2000E-1	1.8832E-4	-1.8832E-4	-7.2010E-1	-2.3666E-9
-7.0000E-1	1.5441E-4	-1.5441E-4	-7.0009E-1	-1.9403E-9
-6.8000E-1	1.2592E-4	-1.2592E-4	-6.8012E-1	-1.5824E-9
-6.6000E-1	1.0352E-4	-1.0352E-4	-6.6011E-1	-1.3009E-9
-6.4000E-1	8.2599E-5	-8.2599E-5	-6.4010E-1	-1.0380E-9
-6.2000E-1	6.1676E-5	-6.1676E-5	-6.2008E-1	-7.7505E-10
-6.0000E-1	5.2882E-5	-5.2882E-5	-6.0011E-1	-6.6454E-10
-5.8000E-1	4.2647E-5	-4.2647E-5	-5.8010E-1	-5.3592E-10
-5.6000E-1	3.3748E-5	-3.3748E-5	-5.6009E-1	-4.2409E-10
-5.4000E-1	2.6640E-5	-2.6640E-5	-5.4007E-1	-3.3477E-10
-5.2000E-1	2.0902E-5	-2.0902E-5	-5.2009E-1	-2.6266E-10
-5.0000E-1	1.6210E-5	-1.6210E-5	-5.0009E-1	-2.0370E-10
-4.8000E-1	1.2390E-5	-1.2390E-5	-4.8008E-1	-1.5570E-10
-4.6000E-1	9.6254E-6	-9.6254E-6	-4.6008E-1	-1.2096E-10
-4.4000E-1	6.6467E-6	-6.6467E-6	-4.4011E-1	-8.3525E-11
-4.2000E-1	5.6018E-6	-5.6018E-6	-4.2011E-1	-7.0395E-11
-4.0000E-1	4.2598E-6	-4.2598E-6	-4.0009E-1	-5.3530E-11
-3.8000E-1	3.2997E-6	-3.2997E-6	-3.8011E-1	-4.1465E-11
-3.6000E-1	2.4697E-6	-2.4697E-6	-3.6010E-1	-3.1035E-11
-3.4000E-1	1.8762E-6	-1.8762E-6	-3.4008E-1	-2.3578E-11
-3.2000E-1	1.4296E-6	-1.4296E-6	-3.2008E-1	-1.7965E-11
-3.0000E-1	1.0744E-6	-1.0744E-6	-3.0010E-1	-1.3502E-11
-2.8000E-1	7.8064E-7	-7.8064E-7	-2.8008E-1	-9.8099E-12
-2.6000E-1	5.8390E-7	-5.8390E-7	-2.6006E-1	-7.3375E-12
-2.4000E-1	4.3044E-7	-4.3044E-7	-2.4006E-1	-5.4091E-12
-2.2000E-1	3.0338E-7	-3.0338E-7	-2.2009E-1	-3.8124E-12
-2.0000E-1	2.3278E-7	-2.3278E-7	-2.0007E-1	-2.9252E-12
-1.8000E-1	1.6721E-7	-1.6721E-7	-1.8007E-1	-2.1012E-12
-1.6000E-1	1.1981E-7	-1.1981E-7	-1.6007E-1	-1.5056E-12
-1.4000E-1	8.5757E-8	-8.5757E-8	-1.4008E-1	-1.0776E-12
-1.2000E-1	5.9767E-8	-5.9767E-8	-1.2007E-1	-7.5105E-13
-1.0000E-1	4.0879E-8	-4.0879E-8	-1.0006E-1	-5.1370E-13
-8.0000E-2	2.8322E-8	-2.8322E-8	-8.0049E-2	-3.5590E-13
-6.0000E-2	1.9323E-8	-1.9323E-8	-6.0076E-2	-2.4282E-13
-4.0000E-2	1.1030E-8	-1.1030E-8	-4.0058E-2	-1.3860E-13
-2.0000E-2	5.3445E-9	-5.3445E-9	-2.0050E-2	-6.7161E-14
-0.0000E+0	2.9200E-11	-2.9200E-11	-6.0852E-5	-3.6694E-16
0.0000E+0	2.0319E-9	-2.0319E-9	-6.1106E-5	-2.5533E-14
2.0000E-2	3.8752E-9	3.8752E-9	2.0054E-2	4.8697E-14
4.0000E-2	9.6562E-9	9.6562E-9	4.0034E-2	1.2134E-13
6.0000E-2	1.3184E-8	1.3184E-8	6.0046E-2	1.6568E-13
8.0000E-2	1.8688E-8	1.8688E-8	8.0056E-2	2.3485E-13
1.0000E-1	2.3277E-8	2.3277E-8	1.0004E-1	2.9251E-13
1.2000E-1	2.9608E-8	2.9608E-8	1.2005E-1	3.7207E-13
1.4000E-1	3.6211E-8	3.6211E-8	1.4006E-1	4.5504E-13
1.6000E-1	4.2670E-8	4.2670E-8	1.6003E-1	5.3621E-13
1.8000E-1	5.0530E-8	5.0530E-8	1.8004E-1	6.3497E-13
2.0000E-1	5.9492E-8	5.9492E-8	2.0004E-1	7.4760E-13
2.2000E-1	7.0797E-8	7.0797E-8	2.2002E-1	8.8966E-13
2.4000E-1	8.0107E-8	8.0107E-8	2.4003E-1	1.0067E-12
2.6000E-1	9.4149E-8	9.4149E-8	2.6004E-1	1.1831E-12
2.8000E-1	1.1290E-7	1.1290E-7	2.8005E-1	1.4188E-12
3.0000E-1	1.3040E-7	1.3040E-7	3.0003E-1	1.6387E-12
3.2000E-1	1.4954E-7	1.4954E-7	3.2005E-1	1.8792E-12
3.4000E-1	1.8227E-7	1.8227E-7	3.4005E-1	2.2905E-12
3.6000E-1	2.0682E-7	2.0682E-7	3.6004E-1	2.5989E-12
3.8000E-1	2.5075E-7	2.5075E-7	3.8005E-1	3.1511E-12
4.0000E-1	2.9394E-7	2.9394E-7	4.0006E-1	3.6937E-12
4.2000E-1	3.2943E-7	3.2943E-7	4.2004E-1	4.1397E-12
4.4000E-1	3.9416E-7	3.9416E-7	4.4004E-1	4.9532E-12
4.6000E-1	4.5326E-7	4.5326E-7	4.6005E-1	5.6959E-12
4.8000E-1	4.9588E-7	4.9588E-7	4.8002E-1	6.2314E-12
5.0000E-1	5.7987E-7	5.7987E-7	5.0003E-1	7.2869E-12
5.2000E-1	6.5346E-7	6.5346E-7	5.2004E-1	8.2116E-12
5.4000E-1	7.6761E-7	7.6761E-7	5.4001E-1	9.6460E-12
5.6000E-1	9.5362E-7	9.5362E-7	5.6003E-1	1.1984E-11
5.8000E-1	1.0618E-6	1.0618E-6	5.8004E-1	1.3343E-11
6.0000E-1	1.1943E-6	1.1943E-6	6.0002E-1	1.5008E-11
6.2000E-1	1.3745E-6	1.3745E-6	6.2002E-1	1.7272E-11
6.4000E-1	1.5261E-6	1.5261E-6	6.4004E-1	1.9178E-11
6.6000E-1	1.7694E-6	1.7694E-6	6.6003E-1	2.2236E-11
6.8000E-1	1.9858E-6	1.9858E-6	6.8003E-1	2.4954E-11
7.0000E-1	2.2752E-6	2.2752E-6	7.0004E-1	2.8591E-11
7.2000E-1	2.5364E-6	2.5364E-6	7.2004E-1	3.1873E-11
7.4000E-1	2.8446E-6	2.8446E-6	7.4001E-1	3.5746E-11
7.6000E-1	3.1999E-6	3.1999E-6	7.6002E-1	4.0212E-11
7.8000E-1	3.5913E-6	3.5913E-6	7.8003E-1	4.5129E-11
8.0000E-1	3.9820E-6	3.9820E-6	8.0000E-1	5.0040E-11
8.2000E-1	4.4265E-6	4.4265E-6	8.2001E-1	5.5625E-11
8.4000E-1	4.9719E-6	4.9719E-6	8.4002E-1	6.2479E-11
8.6000E-1	5.5492E-6	5.5492E-6	8.6001E-1	6.9733E-11
8.8000E-1	6.1812E-6	6.1812E-6	8.8002E-1	7.7675E-11
9.0000E-1	6.9039E-6	6.9039E-6	9.0004E-1	8.6757E-11
9.2000E-1	7.5897E-6	7.5897E-6	9.2002E-1	9.5375E-11
9.4000E-1	7.0843E-6	7.0843E-6	9.4004E-1	8.9023E-11
9.6000E-1	9.5643E-6	9.5643E-6	9.6005E-1	1.2019E-10
9.8000E-1	1.0509E-5	1.0509E-5	9.8002E-1	1.3207E-10
1.0000E+0	1.2222E-5	1.2222E-5	1.0000E+0	1.5358E-10
9.8000E-1	1.0724E-5	1.0724E-5	9.8003E-1	1.3476E-10
9.6000E-1	9.0495E-6	9.0495E-6	9.6006E-1	1.1372E-10
9.4000E-1	7.9651E-6	7.9651E-6	9.4005E-1	1.0009E-10
9.2000E-1	6.3622E-6	6.3622E-6	9.2001E-1	7.9949E-11
9.0000E-1	6.1450E-6	6.1450E-6	9.0003E-1	7.7220E-11
8.8000E-1	5.6825E-6	5.6825E-6	8.8003E-1	7.1408E-11
8.6000E-1	5.0240E-6	5.0240E-6	8.6001E-1	6.3133E-11
8.4000E-1	4.3993E-6	4.3993E-6	8.4002E-1	5.5283E-11
8.2000E-1	3.9138E-6	3.9138E-6	8.2001E-1	4.9182E-11
8.0000E-1	3.3658E-6	3.3658E-6	8.0000E-1	4.2296E-11
7.8000E-1	3.0306E-6	3.0306E-6	7.8002E-1	3.8083E-11
7.6000E-1	2.5652E-6	2.5652E-6	7.6002E-1	3.2235E-11
7.4000E-1	2.2486E-6	2.2486E-6	7.4002E-1	2.8257E-11
7.2000E-1	1.9631E-6	1.9631E-6	7.2005E-1	2.4669E-11
7.0000E-1	1.7612E-6	1.7612E-6	7.0004E-1	2.2131E-11
6.8000E-1	1.4903E-6	1.4903E-6	6.8003E-1	1.8728E-11
6.6000E-1	1.3218E-6	1.3218E-6	6.6003E-1	1.6611E-11
6.4000E-1	1.1375E-6	1.1375E-6	6.4004E-1	1.4294E-11
6.2000E-1	9.8659E-7	9.8659E-7	6.2003E-1	1.2398E-11
6.0000E-1	8.7296E-7	8.7296E-7	6.0002E-1	1.0970E-11
5.8000E-1	7.2925E-7	7.2925E-7	5.8004E-1	9.1640E-12
5.6000E-1	6.3659E-7	6.3659E-7	5.6003E-1	7.9997E-12
5.4000E-1	5.5729E-7	5.5729E-7	5.4002E-1	7.0031E-12
5.2000E-1	4.9849E-7	4.9849E-7	5.2004E-1	6.2643E-12
5.0000E-1	4.3567E-7	4.3567E-7	5.0003E-1	5.4749E-12
4.8000E-1	3.5617E-7	3.5617E-7	4.8002E-1	4.4757E-12
4.6000E-1	2.9794E-7	2.9794E-7	4.6006E-1	3.7440E-12
4.4000E-1	2.5733E-7	2.5733E-7	4.4005E-1	3.2337E-12
4.2000E-1	2.2343E-7	2.2343E-7	4.2004E-1	2.8076E-12
4.0000E-1	1.9168E-7	1.9168E-7	4.0007E-1	2.4087E-12
3.8000E-1	1.7443E-7	1.7443E-7	3.8005E-1	2.1919E-12
3.6000E-1	1.5208E-7	1.5208E-7	3.6004E-1	1.9111E-12
3.4000E-1	1.2646E-7	1.2646E-7	3.4006E-1	1.5891E-12
3.2000E-1	1.0622E-7	1.0622E-7	3.2005E-1	1.3348E-12
3.0000E-1	8.7002E-8	8.7002E-8	3.0003E-1	1.0933E-12
2.8000E-1	6.4968E-8	6.4968E-8	2.8005E-1	8.1642E-13
2.6000E-1	5.6241E-8	5.6241E-8	2.6004E-1	7.0675E-13
2.4000E-1	4.7158E-8	4.7158E-8	2.4003E-1	5.9261E-13
2.2000E-1	3.8890E-8	3.8890E-8	2.2002E-1	4.8871E-13
2.0000E-1	3.2997E-8	3.2997E-8	2.0004E-1	4.1466E-13
1.8000E-1	2.6281E-8	2.6281E-8	1.8004E-1	3.3025E-13
1.6000E-1	2.2318E-8	2.2318E-8	1.6004E-1	2.8046E-13
1.4000E-1	1.7866E-8	1.7866E-8	1.4006E-1	2.2450E-13
1.2000E-1	1.8327E-8	1.8327E-8	1.2005E-1	2.3031E-13
1.0000E-1	1.3090E-8	1.3090E-8	1.0004E-1	1.6450E-13
8.0000E-2	8.7044E-9	8.7044E-9	8.0054E-2	1.0938E-13
6.0000E-2	6.4557E-9	6.4557E-9	6.0041E-2	8.1125E-14
4.0000E-2	3.3505E-9	3.3505E-9	4.0034E-2	4.2103E-14
2.0000E-2	6.1927E-10	6.1927E-10	2.0055E-2	7.7820E-15
0.0000E+0	1.2439E-9	-1.2439E-9	3.9945E-5	-1.5632E-14
-2.0000E-2	3.2218E-9	-3.2218E-9	-2.0048E-2	-4.0486E-14
-4.0000E-2	6.4236E-9	-6.4236E-9	-4.0060E-2	-8.0721E-14
-6.0000E-2	8.8598E-9	-8.8598E-9	-6.0078E-2	-1.1134E-13
-8.0000E-2	1.1476E-8	-1.1476E-8	-8.0049E-2	-1.4422E-13
-1.0000E-1	1.7967E-8	-1.7967E-8	-1.0007E-1	-2.2577E-13
-1.2000E-1	2.4386E-8	-2.4386E-8	-1.2007E-1	-3.0644E-13
-1.4000E-1	3.5099E-8	-3.5099E-8	-1.4009E-1	-4.4107E-13
-1.6000E-1	4.1246E-8	-4.1246E-8	-1.6006E-1	-5.1831E-13
-1.8000E-1	6.0539E-8	-6.0539E-8	-1.8008E-1	-7.6076E-13
-2.0000E-1	8.1033E-8	-8.1033E-8	-2.0008E-1	-1.0183E-12
-2.2000E-1	1.1035E-7	-1.1035E-7	-2.2008E-1	-1.3867E-12
-2.4000E-1	1.4054E-7	-1.4054E-7	-2.4005E-1	-1.7661E-12
-2.6000E-1	1.8094E-7	-1.8094E-7	-2.6006E-1	-2.2737E-12
-2.8000E-1	2.3644E-7	-2.3644E-7	-2.8008E-1	-2.9712E-12
-3.0000E-1	3.0773E-7	-3.0773E-7	-3.0010E-1	-3.8670E-12
-3.2000E-1	4.1136E-7	-4.1136E-7	-3.2008E-1	-5.1693E-12
-3.4000E-1	5.4564E-7	-5.4564E-7	-3.4008E-1	-6.8567E-12
-3.6000E-1	7.3804E-7	-7.3804E-7	-3.6010E-1	-9.2744E-12
-3.8000E-1	1.0285E-6	-1.0285E-6	-3.8011E-1	-1.2925E-11
-4.0000E-1	1.3456E-6	-1.3456E-6	-4.0009E-1	-1.6909E-11
-4.2000E-1	1.8570E-6	-1.8570E-6	-4.2010E-1	-2.3336E-11
-4.4000E-1	2.4379E-6	-2.4379E-6	-4.4010E-1	-3.0635E-11
-4.6000E-1	3.3096E-6	-3.3096E-6	-4.6008E-1	-4.1590E-11
-4.8000E-1	4.4519E-6	-4.4519E-6	-4.8007E-1	-5.5944E-11
-5.0000E-1	6.0282E-6	-6.0282E-6	-5.0009E-1	-7.5752E-11
-5.2000E-1	7.9751E-6	-7.9751E-6	-5.1078E-1	-1.0022E-10
-5.4000E-1	4.9802E-6	-4.9802E-6	-5.4003E-1	-6.2583E-11
-5.6000E-1	1.4074E-5	-1.4074E-5	-5.6009E-1	-1.7686E-10
-5.8000E-1	1.9040E-5	-1.9040E-5	-5.8010E-1	-2.3927E-10
-6.0000E-1	2.5958E-5	-2.5958E-5	-6.0012E-1	-3.2620E-10
-6.2000E-1	3.3768E-5	-3.3768E-5	-6.2009E-1	-4.2434E-10
-6.4000E-1	4.4195E-5	-4.4195E-5	-6.4010E-1	-5.5537E-10
-6.6000E-1	5.8605E-5	-5.8605E-5	-6.6012E-1	-7.3646E-10
-6.8000E-1	7.4767E-5	-7.4767E-5	-6.8013E-1	-9.3955E-10
-7.0000E-1	9.3313E-5	-9.3313E-5	-7.0010E-1	-1.1726E-9
-7.2000E-1	1.2119E-4	-1.2119E-4	-7.2010E-1	-1.5229E-9
-7.4000E-1	1.5430E-4	-1.5430E-4	-7.4010E-1	-1.9390E-9
-7.6000E-1	1.9685E-4	-1.9685E-4	-7.6011E-1	-2.4737E-9
-7.8000E-1	2.4300E-4	-2.4300E-4	-7.8008E-1	-3.0536E-9
-8.0000E-1	3.0194E-4	-3.0194E-4	-8.0008E-1	-3.7943E-9
-8.2000E-1	3.7680E-4	-3.7680E-4	-8.2010E-1	-4.7350E-9
-8.4000E-1	4.6646E-4	-4.6646E-4	-8.4008E-1	-5.8617E-9
-8.6000E-1	5.6603E-4	-5.6603E-4	-8.6010E-1	-7.1129E-9
-8.8000E-1	6.8589E-4	-6.8589E-4	-8.8011E-1	-8.6192E-9
-9.0000E-1	8.3055E-4	-8.3055E-4	-8.9955E-1	-1.0437E-8
-9.2000E-1	8.5744E-4	-8.5744E-4	-9.2011E-1	-1.0775E-8
-9.4000E-1	1.0414E-3	-1.0414E-3	-9.4012E-1	-1.3086E-8
-9.6000E-1	1.2640E-3	-1.2640E-3	-9.6012E-1	-1.5884E-8
-9.8000E-1	1.5030E-3	-1.5030E-3	-9.8013E-1	-1.8887E-8
-1.0000E+0	1.7943E-3	-1.7943E-3	-1.0001E+0	-2.2548E-8
-9.8000E-1	1.5420E-3	-1.5420E-3	-9.8013E-1	-1.9377E-8
-9.6000E-1	1.3193E-3	-1.3193E-3	-9.6013E-1	-1.6579E-8
-9.4000E-1	1.1331E-3	-1.1331E-3	-9.4012E-1	-1.4239E-8
-9.2000E-1	9.7119E-4	-9.7119E-4	-9.2011E-1	-1.2204E-8
-9.0000E-1	8.2315E-4	-8.2315E-4	-9.0012E-1	-1.0344E-8
-8.8000E-1	7.0944E-4	-7.0944E-4	-8.8011E-1	-8.9150E-9
-8.6000E-1	6.0140E-4	-6.0140E-4	-8.6010E-1	-7.5574E-9
-8.4000E-1	5.1007E-4	-5.1007E-4	-8.4008E-1	-6.4098E-9
-8.2000E-1	4.2804E-4	-4.2804E-4	-8.2010E-1	-5.3788E-9
-8.0000E-1	3.5992E-4	-3.5992E-4	-8.0009E-1	-4.5229E-9
-7.8000E-1	3.0243E-4	-3.0243E-4	-7.8009E-1	-3.8004E-9
-7.6000E-1	2.5273E-4	-2.5273E-4	-7.6011E-1	-3.1759E-9
-7.4000E-1	2.1039E-4	-2.1039E-4	-7.4010E-1	-2.6439E-9
-7.2000E-1	1.7271E-4	-1.7271E-4	-7.2010E-1	-2.1704E-9
-7.0000E-1	1.4261E-4	-1.4261E-4	-7.0010E-1	-1.7920E-9
-6.8000E-1	1.1666E-4	-1.1666E-4	-6.8012E-1	-1.4660E-9
-6.6000E-1	9.6505E-5	-9.6505E-5	-6.6011E-1	-1.2127E-9
-6.4000E-1	7.6659E-5	-7.6659E-5	-6.4010E-1	-9.6333E-10
-6.2000E-1	6.2618E-5	-6.2618E-5	-6.2009E-1	-7.8688E-10
