voltage		Abs J		  J    		Voltage		Current
0.0000E+0	3.7129E-6	3.7129E-6	1.0480E-5	6.5612E-12
2.0000E-2	2.5828E-5	2.5828E-5	2.0019E-2	4.5641E-11
4.0000E-2	5.0591E-5	5.0591E-5	3.0876E-2	8.9402E-11
6.0000E-2	5.0528E-5	5.0528E-5	1.6664E-2	8.9290E-11
8.0000E-2	5.4009E-5	5.4009E-5	7.3352E-2	9.5442E-11
1.0000E-1	1.4183E-4	1.4183E-4	9.9931E-2	2.5064E-10
1.2000E-1	1.9485E-4	1.9485E-4	1.1995E-1	3.4432E-10
1.4000E-1	2.3569E-4	2.3569E-4	1.3997E-1	4.1650E-10
1.6000E-1	2.6688E-4	2.6688E-4	1.5997E-1	4.7162E-10
1.8000E-1	3.2169E-4	3.2169E-4	1.8000E-1	5.6847E-10
2.0000E-1	3.6926E-4	3.6926E-4	1.9998E-1	6.5254E-10
2.2000E-1	4.1933E-4	4.1933E-4	2.2002E-1	7.4102E-10
2.4000E-1	4.7358E-4	4.7358E-4	2.4001E-1	8.3689E-10
2.6000E-1	5.0056E-4	5.0056E-4	2.4407E-1	8.8456E-10
2.8000E-1	5.0716E-4	5.0716E-4	2.4810E-1	8.9622E-10
3.0000E-1	6.3676E-4	6.3676E-4	3.0001E-1	1.1253E-9
3.2000E-1	7.1116E-4	7.1116E-4	3.2001E-1	1.2567E-9
3.4000E-1	7.7794E-4	7.7794E-4	3.3996E-1	1.3747E-9
3.6000E-1	8.5478E-4	8.5478E-4	3.5997E-1	1.5105E-9
3.8000E-1	9.4216E-4	9.4216E-4	3.7997E-1	1.6649E-9
4.0000E-1	1.0255E-3	1.0255E-3	3.9994E-1	1.8121E-9
4.2000E-1	1.1198E-3	1.1198E-3	4.1998E-1	1.9789E-9
4.4000E-1	1.2072E-3	1.2072E-3	4.3998E-1	2.1334E-9
4.6000E-1	1.3069E-3	1.3069E-3	4.6001E-1	2.3095E-9
4.8000E-1	1.4204E-3	1.4204E-3	4.8003E-1	2.5100E-9
5.0000E-1	1.5409E-3	1.5409E-3	5.0003E-1	2.7230E-9
5.2000E-1	1.6673E-3	1.6673E-3	5.2007E-1	2.9463E-9
5.4000E-1	1.7934E-3	1.7934E-3	5.4006E-1	3.1692E-9
5.6000E-1	1.9249E-3	1.9249E-3	5.6006E-1	3.4015E-9
5.8000E-1	2.0784E-3	2.0784E-3	5.8003E-1	3.6728E-9
6.0000E-1	2.2356E-3	2.2356E-3	6.0002E-1	3.9506E-9
6.2000E-1	2.4109E-3	2.4109E-3	6.2002E-1	4.2603E-9
6.4000E-1	2.5965E-3	2.5965E-3	6.3999E-1	4.5883E-9
6.6000E-1	2.8124E-3	2.8124E-3	6.6000E-1	4.9699E-9
6.8000E-1	3.0179E-3	3.0179E-3	6.7999E-1	5.3332E-9
7.0000E-1	3.2822E-3	3.2822E-3	7.0002E-1	5.8002E-9
7.2000E-1	3.5399E-3	3.5399E-3	7.2006E-1	6.2555E-9
7.4000E-1	3.8441E-3	3.8441E-3	7.4004E-1	6.7931E-9
7.6000E-1	4.1753E-3	4.1753E-3	7.6006E-1	7.3785E-9
7.8000E-1	4.5290E-3	4.5290E-3	7.8006E-1	8.0034E-9
8.0000E-1	4.9656E-3	4.9656E-3	8.0009E-1	8.7749E-9
8.2000E-1	5.3782E-3	5.3782E-3	8.1784E-1	9.5041E-9
8.4000E-1	5.7986E-3	5.7986E-3	8.2916E-1	1.0247E-8
8.6000E-1	6.6882E-3	6.6882E-3	8.6005E-1	1.1819E-8
8.8000E-1	7.3670E-3	7.3670E-3	8.8002E-1	1.3019E-8
9.0000E-1	8.1302E-3	8.1302E-3	9.0002E-1	1.4367E-8
9.2000E-1	9.0152E-3	9.0152E-3	9.1999E-1	1.5931E-8
9.4000E-1	9.9022E-3	9.9022E-3	9.4000E-1	1.7499E-8
9.6000E-1	1.1475E-2	1.1475E-2	9.6003E-1	2.0278E-8
9.8000E-1	1.3016E-2	1.3016E-2	9.8002E-1	2.3002E-8
1.0000E+0	1.4166E-2	1.4166E-2	1.0001E+0	2.5033E-8
9.8000E-1	1.2656E-2	1.2656E-2	9.8003E-1	2.2365E-8
9.6000E-1	1.1382E-2	1.1382E-2	9.6002E-1	2.0114E-8
9.4000E-1	9.7239E-3	9.7239E-3	9.4000E-1	1.7184E-8
9.2000E-1	8.9797E-3	8.9797E-3	9.1999E-1	1.5868E-8
9.0000E-1	7.9275E-3	7.9275E-3	9.0002E-1	1.4009E-8
8.8000E-1	7.0203E-3	7.0203E-3	8.8001E-1	1.2406E-8
8.6000E-1	6.3478E-3	6.3478E-3	8.6005E-1	1.1217E-8
8.4000E-1	5.5571E-3	5.5571E-3	8.3484E-1	9.8203E-9
8.2000E-1	5.2859E-3	5.2859E-3	8.1929E-1	9.3409E-9
8.0000E-1	4.7277E-3	4.7277E-3	8.0009E-1	8.3546E-9
7.8000E-1	4.3211E-3	4.3211E-3	7.8006E-1	7.6361E-9
7.6000E-1	3.9498E-3	3.9498E-3	7.6006E-1	6.9798E-9
7.4000E-1	3.5678E-3	3.5678E-3	7.4004E-1	6.3048E-9
7.2000E-1	3.2788E-3	3.2788E-3	7.2005E-1	5.7941E-9
7.0000E-1	2.9718E-3	2.9718E-3	7.0002E-1	5.2517E-9
6.8000E-1	2.7662E-3	2.7662E-3	6.7999E-1	4.8884E-9
6.6000E-1	2.5250E-3	2.5250E-3	6.5999E-1	4.4620E-9
6.4000E-1	2.3036E-3	2.3036E-3	6.4000E-1	4.0707E-9
6.2000E-1	2.1441E-3	2.1441E-3	6.2002E-1	3.7889E-9
6.0000E-1	1.9857E-3	1.9857E-3	6.0002E-1	3.5090E-9
5.8000E-1	1.8194E-3	1.8194E-3	5.8003E-1	3.2152E-9
5.6000E-1	1.6721E-3	1.6721E-3	5.6006E-1	2.9549E-9
5.4000E-1	1.5394E-3	1.5394E-3	5.4005E-1	2.7204E-9
5.2000E-1	1.4133E-3	1.4133E-3	5.2006E-1	2.4975E-9
5.0000E-1	1.3182E-3	1.3182E-3	5.0003E-1	2.3294E-9
4.8000E-1	1.1988E-3	1.1988E-3	4.8003E-1	2.1184E-9
4.6000E-1	1.1020E-3	1.1020E-3	4.6001E-1	1.9474E-9
4.4000E-1	1.0166E-3	1.0166E-3	4.3998E-1	1.7965E-9
4.2000E-1	9.3578E-4	9.3578E-4	4.1998E-1	1.6537E-9
4.0000E-1	8.5442E-4	8.5442E-4	3.9994E-1	1.5099E-9
3.8000E-1	7.8521E-4	7.8521E-4	3.7997E-1	1.3876E-9
3.6000E-1	7.1404E-4	7.1404E-4	3.5997E-1	1.2618E-9
3.4000E-1	6.4971E-4	6.4971E-4	3.3997E-1	1.1481E-9
3.2000E-1	5.9367E-4	5.9367E-4	3.2001E-1	1.0491E-9
3.0000E-1	5.1467E-4	5.1467E-4	2.9943E-1	9.0950E-10
2.8000E-1	4.8646E-4	4.8646E-4	2.8005E-1	8.5964E-10
2.6000E-1	4.3886E-4	4.3886E-4	2.6004E-1	7.7553E-10
2.4000E-1	3.9211E-4	3.9211E-4	2.4001E-1	6.9292E-10
2.2000E-1	3.4777E-4	3.4777E-4	2.2001E-1	6.1457E-10
2.0000E-1	3.0663E-4	3.0663E-4	1.9998E-1	5.4186E-10
1.8000E-1	2.6702E-4	2.6702E-4	1.8000E-1	4.7187E-10
1.6000E-1	2.2960E-4	2.2960E-4	1.5996E-1	4.0574E-10
1.4000E-1	1.9498E-4	1.9498E-4	1.3997E-1	3.4456E-10
1.2000E-1	1.6257E-4	1.6257E-4	1.1995E-1	2.8728E-10
1.0000E-1	1.3348E-4	1.3348E-4	9.9941E-2	2.3588E-10
8.0000E-2	1.0307E-4	1.0307E-4	7.9974E-2	1.8214E-10
6.0000E-2	7.5402E-5	7.5402E-5	5.9981E-2	1.3325E-10
4.0000E-2	4.4845E-5	4.4845E-5	4.0020E-2	7.9248E-11
2.0000E-2	2.7172E-5	2.7172E-5	2.0019E-2	4.8017E-11
0.0000E+0	3.8918E-6	3.8918E-6	1.1907E-5	6.8773E-12
-2.0000E-2	1.9193E-5	-1.9193E-5	-1.9938E-2	-3.3916E-11
-4.0000E-2	4.1417E-5	-4.1417E-5	-3.9953E-2	-7.3189E-11
-6.0000E-2	5.0833E-5	-5.0833E-5	-5.0494E-2	-8.9830E-11
-8.0000E-2	3.7244E-5	-3.7244E-5	-7.9899E-2	-6.5815E-11
-1.0000E-1	1.0837E-4	-1.0837E-4	-9.9883E-2	-1.9150E-10
-1.2000E-1	1.3427E-4	-1.3427E-4	-1.1989E-1	-2.3727E-10
-1.4000E-1	1.5726E-4	-1.5726E-4	-1.3988E-1	-2.7790E-10
-1.6000E-1	1.7824E-4	-1.7824E-4	-1.5991E-1	-3.1498E-10
-1.8000E-1	2.0100E-4	-2.0100E-4	-1.7991E-1	-3.5519E-10
-2.0000E-1	2.1982E-4	-2.1982E-4	-1.9993E-1	-3.8846E-10
-2.2000E-1	2.4640E-4	-2.4640E-4	-2.1993E-1	-4.3542E-10
-2.4000E-1	2.7365E-4	-2.7365E-4	-2.3996E-1	-4.8357E-10
-2.6000E-1	2.9481E-4	-2.9481E-4	-2.5997E-1	-5.2097E-10
-2.8000E-1	3.0716E-4	-3.0716E-4	-2.7997E-1	-5.4280E-10
-3.0000E-1	3.3134E-4	-3.3134E-4	-2.9998E-1	-5.8552E-10
-3.2000E-1	3.5348E-4	-3.5348E-4	-3.1995E-1	-6.2465E-10
-3.4000E-1	3.8125E-4	-3.8125E-4	-3.3995E-1	-6.7372E-10
-3.6000E-1	4.1049E-4	-4.1049E-4	-3.5992E-1	-7.2540E-10
-3.8000E-1	4.3853E-4	-4.3853E-4	-3.7992E-1	-7.7496E-10
-4.0000E-1	4.7557E-4	-4.7557E-4	-3.9991E-1	-8.4040E-10
-4.2000E-1	4.9666E-4	-4.9666E-4	-4.0865E-1	-8.7768E-10
-4.4000E-1	5.5541E-4	-5.5541E-4	-4.3993E-1	-9.8149E-10
-4.6000E-1	6.0136E-4	-6.0136E-4	-4.5997E-1	-1.0627E-9
-4.8000E-1	6.5973E-4	-6.5973E-4	-4.7996E-1	-1.1658E-9
-5.0000E-1	7.2523E-4	-7.2523E-4	-4.9999E-1	-1.2816E-9
-5.2000E-1	7.9950E-4	-7.9950E-4	-5.2000E-1	-1.4128E-9
-5.4000E-1	8.8705E-4	-8.8705E-4	-5.4002E-1	-1.5675E-9
-5.6000E-1	9.9994E-4	-9.9994E-4	-5.5999E-1	-1.7670E-9
-5.8000E-1	1.1365E-3	-1.1365E-3	-5.8000E-1	-2.0083E-9
-6.0000E-1	1.3051E-3	-1.3051E-3	-5.9996E-1	-2.3063E-9
-6.2000E-1	1.4696E-3	-1.4696E-3	-6.1997E-1	-2.5970E-9
-6.4000E-1	1.6762E-3	-1.6762E-3	-6.3994E-1	-2.9620E-9
-6.6000E-1	1.9484E-3	-1.9484E-3	-6.5995E-1	-3.4432E-9
-6.8000E-1	2.2346E-3	-2.2346E-3	-6.7998E-1	-3.9489E-9
-7.0000E-1	2.6035E-3	-2.6035E-3	-6.9997E-1	-4.6007E-9
-7.2000E-1	3.0965E-3	-3.0965E-3	-7.2001E-1	-5.4719E-9
-7.4000E-1	3.6611E-3	-3.6611E-3	-7.3999E-1	-6.4698E-9
-7.6000E-1	4.2882E-3	-4.2882E-3	-7.6003E-1	-7.5780E-9
-7.8000E-1	5.0804E-3	-5.0804E-3	-7.8003E-1	-8.9779E-9
-8.0000E-1	5.7061E-3	-5.7061E-3	-8.0004E-1	-1.0084E-8
-8.2000E-1	6.5408E-3	-6.5408E-3	-8.2002E-1	-1.1559E-8
-8.4000E-1	7.7669E-3	-7.7669E-3	-8.4002E-1	-1.3725E-8
-8.6000E-1	9.0998E-3	-9.0998E-3	-8.6000E-1	-1.6081E-8
-8.8000E-1	1.0894E-2	-1.0894E-2	-8.7999E-1	-1.9251E-8
-9.0000E-1	1.3011E-2	-1.3011E-2	-8.9996E-1	-2.2992E-8
-9.2000E-1	1.5297E-2	-1.5297E-2	-9.1997E-1	-2.7032E-8
-9.4000E-1	1.8108E-2	-1.8108E-2	-9.3995E-1	-3.1999E-8
-9.6000E-1	2.1228E-2	-2.1228E-2	-9.5998E-1	-3.7513E-8
-9.8000E-1	2.4847E-2	-2.4847E-2	-9.7998E-1	-4.3908E-8
-1.0000E+0	2.9072E-2	-2.9072E-2	-1.0000E+0	-5.1374E-8
-9.8000E-1	2.5062E-2	-2.5062E-2	-9.7998E-1	-4.4289E-8
-9.6000E-1	2.1733E-2	-2.1733E-2	-9.5998E-1	-3.8405E-8
-9.4000E-1	1.8903E-2	-1.8903E-2	-9.3995E-1	-3.3404E-8
-9.2000E-1	1.6204E-2	-1.6204E-2	-9.1997E-1	-2.8634E-8
-9.0000E-1	1.3984E-2	-1.3984E-2	-8.9996E-1	-2.4711E-8
-8.8000E-1	1.2120E-2	-1.2120E-2	-8.7999E-1	-2.1418E-8
-8.6000E-1	1.0424E-2	-1.0424E-2	-8.6000E-1	-1.8421E-8
-8.4000E-1	9.0549E-3	-9.0549E-3	-8.4003E-1	-1.6001E-8
-8.2000E-1	7.7564E-3	-7.7564E-3	-8.2002E-1	-1.3707E-8
-8.0000E-1	6.7504E-3	-6.7504E-3	-8.0004E-1	-1.1929E-8
-7.8000E-1	5.8238E-3	-5.8238E-3	-7.8002E-1	-1.0291E-8
-7.6000E-1	5.0615E-3	-5.0615E-3	-7.6003E-1	-8.9445E-9
-7.4000E-1	4.3721E-3	-4.3721E-3	-7.4000E-1	-7.7262E-9
-7.2000E-1	3.7739E-3	-3.7739E-3	-7.2001E-1	-6.6690E-9
-7.0000E-1	3.2872E-3	-3.2872E-3	-6.9997E-1	-5.8089E-9
-6.8000E-1	2.8493E-3	-2.8493E-3	-6.7997E-1	-5.0352E-9
-6.6000E-1	2.5095E-3	-2.5095E-3	-6.5995E-1	-4.4346E-9
-6.4000E-1	2.2127E-3	-2.2127E-3	-6.3994E-1	-3.9102E-9
-6.2000E-1	1.9352E-3	-1.9352E-3	-6.1997E-1	-3.4197E-9
-6.0000E-1	1.6915E-3	-1.6915E-3	-5.9996E-1	-2.9891E-9
-5.8000E-1	1.4821E-3	-1.4821E-3	-5.8000E-1	-2.6191E-9
-5.6000E-1	1.3230E-3	-1.3230E-3	-5.6000E-1	-2.3379E-9
-5.4000E-1	1.1769E-3	-1.1769E-3	-5.4002E-1	-2.0798E-9
-5.2000E-1	1.0413E-3	-1.0413E-3	-5.2000E-1	-1.8402E-9
-5.0000E-1	9.2915E-4	-9.2915E-4	-4.9999E-1	-1.6419E-9
-4.8000E-1	8.3752E-4	-8.3752E-4	-4.7996E-1	-1.4800E-9
-4.6000E-1	7.5863E-4	-7.5863E-4	-4.5997E-1	-1.3406E-9
-4.4000E-1	6.7870E-4	-6.7870E-4	-4.3994E-1	-1.1994E-9
-4.2000E-1	6.1972E-4	-6.1972E-4	-4.1993E-1	-1.0951E-9
-4.0000E-1	5.0471E-4	-5.0471E-4	-3.6863E-1	-8.9189E-10
-3.8000E-1	4.9886E-4	-4.9886E-4	-3.7553E-1	-8.8157E-10
-3.6000E-1	4.7018E-4	-4.7018E-4	-3.5992E-1	-8.3087E-10
-3.4000E-1	4.2947E-4	-4.2947E-4	-3.3995E-1	-7.5894E-10
-3.2000E-1	3.9604E-4	-3.9604E-4	-3.1996E-1	-6.9987E-10
-3.0000E-1	3.6570E-4	-3.6570E-4	-2.9998E-1	-6.4625E-10
-2.8000E-1	3.3519E-4	-3.3519E-4	-2.7998E-1	-5.9233E-10
-2.6000E-1	3.0621E-4	-3.0621E-4	-2.5996E-1	-5.4111E-10
-2.4000E-1	2.8133E-4	-2.8133E-4	-2.3997E-1	-4.9715E-10
-2.2000E-1	2.5640E-4	-2.5640E-4	-2.1994E-1	-4.5309E-10
-2.0000E-1	2.3307E-4	-2.3307E-4	-1.9993E-1	-4.1187E-10
-1.8000E-1	2.0881E-4	-2.0881E-4	-1.7991E-1	-3.6900E-10
-1.6000E-1	1.8589E-4	-1.8589E-4	-1.5991E-1	-3.2849E-10
-1.4000E-1	1.6266E-4	-1.6266E-4	-1.3988E-1	-2.8744E-10
-1.2000E-1	1.3963E-4	-1.3963E-4	-1.1989E-1	-2.4674E-10
-1.0000E-1	1.1711E-4	-1.1711E-4	-9.9883E-2	-2.0694E-10
-8.0000E-2	9.4107E-5	-9.4107E-5	-7.9906E-2	-1.6630E-10
-6.0000E-2	7.1027E-5	-7.1027E-5	-5.9913E-2	-1.2552E-10
-4.0000E-2	4.1421E-5	-4.1421E-5	-3.9951E-2	-7.3197E-11
-2.0000E-2	2.5672E-5	-2.5672E-5	-1.9945E-2	-4.5367E-11
-0.0000E+0	2.0035E-6	-2.0035E-6	3.1216E-5	-3.5405E-12
0.0000E+0	6.4697E-7	6.4697E-7	3.4071E-5	1.1433E-12
2.0000E-2	2.2657E-5	2.2657E-5	2.0015E-2	4.0039E-11
4.0000E-2	4.8521E-5	4.8521E-5	4.0030E-2	8.5743E-11
6.0000E-2	5.1061E-5	5.1061E-5	3.5467E-2	9.0232E-11
8.0000E-2	5.1993E-5	5.1993E-5	4.1686E-2	9.1880E-11
1.0000E-1	1.2386E-4	1.2386E-4	9.9939E-2	2.1888E-10
1.2000E-1	1.6756E-4	1.6756E-4	1.1994E-1	2.9611E-10
1.4000E-1	2.0240E-4	2.0240E-4	1.3997E-1	3.5768E-10
1.6000E-1	2.3744E-4	2.3744E-4	1.5996E-1	4.1958E-10
1.8000E-1	2.7770E-4	2.7770E-4	1.8000E-1	4.9073E-10
2.0000E-1	3.1798E-4	3.1798E-4	1.9998E-1	5.6191E-10
2.2000E-1	3.5804E-4	3.5804E-4	2.2001E-1	6.3271E-10
2.4000E-1	4.0242E-4	4.0242E-4	2.4001E-1	7.1114E-10
2.6000E-1	4.5186E-4	4.5186E-4	2.6004E-1	7.9850E-10
2.8000E-1	4.9344E-4	4.9344E-4	2.7808E-1	8.7197E-10
3.0000E-1	5.3596E-4	5.3596E-4	3.0001E-1	9.4713E-10
3.2000E-1	6.0717E-4	6.0717E-4	3.2001E-1	1.0730E-9
3.4000E-1	6.6814E-4	6.6814E-4	3.3997E-1	1.1807E-9
3.6000E-1	7.3592E-4	7.3592E-4	3.5997E-1	1.3005E-9
3.8000E-1	8.0726E-4	8.0726E-4	3.7997E-1	1.4265E-9
4.0000E-1	8.7984E-4	8.7984E-4	3.9995E-1	1.5548E-9
4.2000E-1	9.6235E-4	9.6235E-4	4.1998E-1	1.7006E-9
4.4000E-1	1.0373E-3	1.0373E-3	4.3998E-1	1.8331E-9
4.6000E-1	1.1300E-3	1.1300E-3	4.6001E-1	1.9969E-9
4.8000E-1	1.2221E-3	1.2221E-3	4.8003E-1	2.1596E-9
5.0000E-1	1.3284E-3	1.3284E-3	5.0003E-1	2.3475E-9
5.2000E-1	1.4277E-3	1.4277E-3	5.2006E-1	2.5229E-9
5.4000E-1	1.5372E-3	1.5372E-3	5.4006E-1	2.7164E-9
5.6000E-1	1.6496E-3	1.6496E-3	5.6006E-1	2.9150E-9
5.8000E-1	1.7923E-3	1.7923E-3	5.8003E-1	3.1672E-9
6.0000E-1	1.9237E-3	1.9237E-3	6.0002E-1	3.3994E-9
6.2000E-1	2.0942E-3	2.0942E-3	6.2003E-1	3.7008E-9
6.4000E-1	2.2383E-3	2.2383E-3	6.4000E-1	3.9555E-9
6.6000E-1	2.4297E-3	2.4297E-3	6.6000E-1	4.2936E-9
6.8000E-1	2.6560E-3	2.6560E-3	6.7999E-1	4.6936E-9
7.0000E-1	2.8567E-3	2.8567E-3	7.0002E-1	5.0481E-9
7.2000E-1	3.1258E-3	3.1258E-3	7.2005E-1	5.5237E-9
7.4000E-1	3.3940E-3	3.3940E-3	7.4003E-1	5.9977E-9
7.6000E-1	3.6860E-3	3.6860E-3	7.6006E-1	6.5138E-9
7.8000E-1	4.0149E-3	4.0149E-3	7.8006E-1	7.0949E-9
8.0000E-1	4.3895E-3	4.3895E-3	8.0009E-1	7.7570E-9
8.2000E-1	4.8233E-3	4.8233E-3	8.2010E-1	8.5235E-9
8.4000E-1	5.2850E-3	5.2850E-3	8.3927E-1	9.3394E-9
8.6000E-1	5.6389E-3	5.6389E-3	8.5403E-1	9.9648E-9
8.8000E-1	6.7458E-3	6.7458E-3	8.8001E-1	1.1921E-8
9.0000E-1	7.3397E-3	7.3397E-3	9.0002E-1	1.2970E-8
9.2000E-1	8.2154E-3	8.2154E-3	9.1999E-1	1.4518E-8
9.4000E-1	1.0518E-2	1.0518E-2	9.3999E-1	1.8586E-8
9.6000E-1	1.4384E-2	1.4384E-2	9.6005E-1	2.5418E-8
9.8000E-1	1.2271E-2	1.2271E-2	9.8002E-1	2.1685E-8
1.0000E+0	1.3423E-2	1.3423E-2	1.0001E+0	2.3720E-8
9.8000E-1	1.1672E-2	1.1672E-2	9.8002E-1	2.0626E-8
9.6000E-1	1.0456E-2	1.0456E-2	9.6003E-1	1.8478E-8
9.4000E-1	9.0722E-3	9.0722E-3	9.4000E-1	1.6032E-8
9.2000E-1	8.2558E-3	8.2558E-3	9.1999E-1	1.4589E-8
9.0000E-1	6.8378E-3	6.8378E-3	9.0001E-1	1.2083E-8
8.8000E-1	6.0820E-3	6.0820E-3	8.8002E-1	1.0748E-8
8.6000E-1	5.4698E-3	5.4698E-3	8.5676E-1	9.6660E-9
8.4000E-1	5.4751E-3	5.4751E-3	8.3523E-1	9.6752E-9
8.2000E-1	4.5548E-3	4.5548E-3	8.2009E-1	8.0490E-9
8.0000E-1	4.2053E-3	4.2053E-3	8.0008E-1	7.4313E-9
7.8000E-1	3.6425E-3	3.6425E-3	7.8006E-1	6.4368E-9
7.6000E-1	3.4054E-3	3.4054E-3	7.6007E-1	6.0179E-9
7.4000E-1	3.1220E-3	3.1220E-3	7.4004E-1	5.5170E-9
7.2000E-1	2.8468E-3	2.8468E-3	7.2004E-1	5.0306E-9
7.0000E-1	2.6275E-3	2.6275E-3	7.0002E-1	4.6432E-9
6.8000E-1	2.3867E-3	2.3867E-3	6.7998E-1	4.2176E-9
6.6000E-1	2.1648E-3	2.1648E-3	6.6000E-1	3.8256E-9
6.4000E-1	1.9881E-3	1.9881E-3	6.3999E-1	3.5132E-9
6.2000E-1	1.8390E-3	1.8390E-3	6.2003E-1	3.2498E-9
6.0000E-1	1.6746E-3	1.6746E-3	6.0002E-1	2.9592E-9
5.8000E-1	1.5255E-3	1.5255E-3	5.8003E-1	2.6958E-9
5.6000E-1	1.4155E-3	1.4155E-3	5.6006E-1	2.5015E-9
5.4000E-1	1.3018E-3	1.3018E-3	5.4005E-1	2.3005E-9
5.2000E-1	1.1978E-3	1.1978E-3	5.2006E-1	2.1166E-9
5.0000E-1	1.1064E-3	1.1064E-3	5.0003E-1	1.9551E-9
4.8000E-1	1.0064E-3	1.0064E-3	4.8003E-1	1.7784E-9
4.6000E-1	9.3051E-4	9.3051E-4	4.6001E-1	1.6443E-9
4.4000E-1	8.5542E-4	8.5542E-4	4.3998E-1	1.5117E-9
4.2000E-1	7.7751E-4	7.7751E-4	4.1998E-1	1.3740E-9
4.0000E-1	7.1015E-4	7.1015E-4	3.9994E-1	1.2549E-9
3.8000E-1	6.5552E-4	6.5552E-4	3.7997E-1	1.1584E-9
3.6000E-1	5.9404E-4	5.9404E-4	3.5997E-1	1.0498E-9
3.4000E-1	5.1552E-4	5.1552E-4	3.3881E-1	9.1100E-10
3.2000E-1	4.9245E-4	4.9245E-4	3.1963E-1	8.7023E-10
3.0000E-1	4.4723E-4	4.4723E-4	3.0002E-1	7.9032E-10
2.8000E-1	4.0189E-4	4.0189E-4	2.8005E-1	7.1020E-10
2.6000E-1	3.5912E-4	3.5912E-4	2.6004E-1	6.3461E-10
2.4000E-1	3.2261E-4	3.2261E-4	2.4001E-1	5.7010E-10
2.2000E-1	2.8610E-4	2.8610E-4	2.2001E-1	5.0558E-10
2.0000E-1	2.5200E-4	2.5200E-4	1.9998E-1	4.4533E-10
1.8000E-1	2.2161E-4	2.2161E-4	1.8000E-1	3.9162E-10
1.6000E-1	1.8994E-4	1.8994E-4	1.5996E-1	3.3566E-10
1.4000E-1	1.6160E-4	1.6160E-4	1.3996E-1	2.8558E-10
1.2000E-1	1.3485E-4	1.3485E-4	1.1994E-1	2.3830E-10
1.0000E-1	1.0989E-4	1.0989E-4	9.9941E-2	1.9419E-10
8.0000E-2	8.5459E-5	8.5459E-5	7.9973E-2	1.5102E-10
6.0000E-2	6.2914E-5	6.2914E-5	5.9982E-2	1.1118E-10
4.0000E-2	3.7227E-5	3.7227E-5	4.0020E-2	6.5786E-11
2.0000E-2	2.2588E-5	2.2588E-5	2.0019E-2	3.9916E-11
0.0000E+0	3.0611E-6	3.0611E-6	9.8927E-6	5.4094E-12
-2.0000E-2	1.5932E-5	-1.5932E-5	-1.9937E-2	-2.8155E-11
-4.0000E-2	3.4554E-5	-3.4554E-5	-3.9948E-2	-6.1062E-11
-6.0000E-2	5.0165E-5	-5.0165E-5	-5.5440E-2	-8.8649E-11
-8.0000E-2	2.4461E-5	-2.4461E-5	-7.9897E-2	-4.3227E-11
-1.0000E-1	8.8066E-5	-8.8066E-5	-9.9881E-2	-1.5563E-10
-1.2000E-1	1.0781E-4	-1.0781E-4	-1.1989E-1	-1.9052E-10
-1.4000E-1	1.2583E-4	-1.2583E-4	-1.3988E-1	-2.2237E-10
-1.6000E-1	1.4926E-4	-1.4926E-4	-1.5991E-1	-2.6377E-10
-1.8000E-1	1.6181E-4	-1.6181E-4	-1.7992E-1	-2.8594E-10
-2.0000E-1	1.8419E-4	-1.8419E-4	-1.9993E-1	-3.2548E-10
-2.2000E-1	2.0233E-4	-2.0233E-4	-2.1993E-1	-3.5754E-10
-2.4000E-1	2.1568E-4	-2.1568E-4	-2.3997E-1	-3.8113E-10
-2.6000E-1	2.3355E-4	-2.3355E-4	-2.5996E-1	-4.1272E-10
-2.8000E-1	2.6253E-4	-2.6253E-4	-2.7998E-1	-4.6393E-10
-3.0000E-1	2.8191E-4	-2.8191E-4	-2.9998E-1	-4.9818E-10
-3.2000E-1	3.0500E-4	-3.0500E-4	-3.1995E-1	-5.3899E-10
-3.4000E-1	3.2918E-4	-3.2918E-4	-3.3995E-1	-5.8171E-10
-3.6000E-1	3.5809E-4	-3.5809E-4	-3.5992E-1	-6.3279E-10
-3.8000E-1	3.8724E-4	-3.8724E-4	-3.7992E-1	-6.8431E-10
-4.0000E-1	4.1579E-4	-4.1579E-4	-3.9990E-1	-7.3476E-10
-4.2000E-1	4.4757E-4	-4.4757E-4	-4.1994E-1	-7.9093E-10
-4.4000E-1	4.8572E-4	-4.8572E-4	-4.3995E-1	-8.5834E-10
-4.6000E-1	5.0211E-4	-5.0211E-4	-4.4123E-1	-8.8729E-10
-4.8000E-1	5.0803E-4	-5.0803E-4	-4.4335E-1	-8.9776E-10
-5.0000E-1	6.4562E-4	-6.4562E-4	-4.9999E-1	-1.1409E-9
-5.2000E-1	7.1749E-4	-7.1749E-4	-5.2000E-1	-1.2679E-9
-5.4000E-1	7.9638E-4	-7.9638E-4	-5.4002E-1	-1.4073E-9
-5.6000E-1	8.7687E-4	-8.7687E-4	-5.5999E-1	-1.5496E-9
-5.8000E-1	1.0001E-3	-1.0001E-3	-5.8000E-1	-1.7673E-9
-6.0000E-1	1.1393E-3	-1.1393E-3	-5.9996E-1	-2.0134E-9
-6.2000E-1	1.3043E-3	-1.3043E-3	-6.1997E-1	-2.3048E-9
-6.4000E-1	1.5050E-3	-1.5050E-3	-6.3994E-1	-2.6595E-9
-6.6000E-1	1.7503E-3	-1.7503E-3	-6.5995E-1	-3.0930E-9
-6.8000E-1	2.0307E-3	-2.0307E-3	-6.7998E-1	-3.5885E-9
-7.0000E-1	2.4050E-3	-2.4050E-3	-6.9997E-1	-4.2501E-9
-7.2000E-1	2.8096E-3	-2.8096E-3	-7.2001E-1	-4.9650E-9
-7.4000E-1	3.3086E-3	-3.3086E-3	-7.3999E-1	-5.8467E-9
-7.6000E-1	3.8877E-3	-3.8877E-3	-7.6002E-1	-6.8701E-9
-7.8000E-1	4.5602E-3	-4.5602E-3	-7.8002E-1	-8.0585E-9
-8.0000E-1	5.4227E-3	-5.4227E-3	-7.9926E-1	-9.5828E-9
-8.2000E-1	5.9165E-3	-5.9165E-3	-8.2002E-1	-1.0455E-8
-8.4000E-1	6.8940E-3	-6.8940E-3	-8.4003E-1	-1.2183E-8
-8.6000E-1	8.2269E-3	-8.2269E-3	-8.6000E-1	-1.4538E-8
-8.8000E-1	9.6931E-3	-9.6931E-3	-8.7999E-1	-1.7129E-8
-9.0000E-1	1.1615E-2	-1.1615E-2	-8.9996E-1	-2.0525E-8
-9.2000E-1	1.3852E-2	-1.3852E-2	-9.1997E-1	-2.4479E-8
-9.4000E-1	1.6212E-2	-1.6212E-2	-9.3995E-1	-2.8649E-8
-9.6000E-1	1.9095E-2	-1.9095E-2	-9.5998E-1	-3.3744E-8
-9.8000E-1	2.2400E-2	-2.2400E-2	-9.7998E-1	-3.9583E-8
-1.0000E+0	2.6225E-2	-2.6225E-2	-1.0000E+0	-4.6343E-8
-9.8000E-1	2.2628E-2	-2.2628E-2	-9.7998E-1	-3.9987E-8
-9.6000E-1	1.9422E-2	-1.9422E-2	-9.5998E-1	-3.4322E-8
-9.4000E-1	1.6814E-2	-1.6814E-2	-9.3995E-1	-2.9713E-8
-9.2000E-1	1.4526E-2	-1.4526E-2	-9.1996E-1	-2.5670E-8
-9.0000E-1	1.2606E-2	-1.2606E-2	-8.9996E-1	-2.2277E-8
-8.8000E-1	1.0854E-2	-1.0854E-2	-8.7999E-1	-1.9180E-8
-8.6000E-1	9.4018E-3	-9.4018E-3	-8.6000E-1	-1.6614E-8
-8.4000E-1	8.1546E-3	-8.1546E-3	-8.4002E-1	-1.4410E-8
-8.2000E-1	7.0877E-3	-7.0877E-3	-8.2002E-1	-1.2525E-8
-8.0000E-1	6.0967E-3	-6.0967E-3	-8.0004E-1	-1.0774E-8
-7.8000E-1	5.2630E-3	-5.2630E-3	-7.8002E-1	-9.3004E-9
-7.6000E-1	4.5375E-3	-4.5375E-3	-7.6003E-1	-8.0184E-9
-7.4000E-1	3.8990E-3	-3.8990E-3	-7.3999E-1	-6.8901E-9
-7.2000E-1	3.3833E-3	-3.3833E-3	-7.2001E-1	-5.9787E-9
-7.0000E-1	2.9187E-3	-2.9187E-3	-6.9998E-1	-5.1577E-9
-6.8000E-1	2.5389E-3	-2.5389E-3	-6.7998E-1	-4.4865E-9
-6.6000E-1	2.1852E-3	-2.1852E-3	-6.5995E-1	-3.8616E-9
-6.4000E-1	1.9182E-3	-1.9182E-3	-6.3994E-1	-3.3897E-9
-6.2000E-1	1.6782E-3	-1.6782E-3	-6.1997E-1	-2.9656E-9
-6.0000E-1	1.4826E-3	-1.4826E-3	-5.9996E-1	-2.6199E-9
-5.8000E-1	1.2866E-3	-1.2866E-3	-5.8000E-1	-2.2736E-9
-5.6000E-1	1.1339E-3	-1.1339E-3	-5.6000E-1	-2.0038E-9
-5.4000E-1	1.0028E-3	-1.0028E-3	-5.4002E-1	-1.7722E-9
